#{"CCD_temperature": "-88", "FELP": "5", "FELRR": "0.75", "FEL_lambda": "600", "FEL_pulses": 16, "NIRP": "138.595", "NIR_lambda": "764.0", "Sample_Temp": "16", "addenda": [0, "FEL_power_sweep"], "bg_file_name": "testBG29", "center_lambda": 748.0, "dark_region": null, "exposure": 20.0, "gain": 60, "grating": 2, "series": "5,764.0", "slits": "40", "subtrahenda": ["testBG"], "y_max": 85, "y_min": 25}
#Trying to do FEL power dep
Wavelength,Signal
nm,arb. u.
736.045780,56.000000
736.060819,60.000000
736.075858,64.000000
736.090897,73.000000
736.105936,53.000000
736.120975,62.000000
736.136013,59.000000
736.151051,38.000000
736.166089,49.000000
736.181127,57.000000
736.196165,54.000000
736.211202,60.000000
736.226240,70.000000
736.241277,73.000000
736.256314,47.000000
736.271350,70.000000
736.286387,53.000000
736.301423,27.000000
736.316459,38.000000
736.331495,17.000000
736.346531,51.000000
736.361567,42.000000
736.376602,65.000000
736.391637,33.000000
736.406672,64.000000
736.421707,66.000000
736.436742,83.000000
736.451776,74.000000
736.466810,47.000000
736.481845,69.000000
736.496878,64.000000
736.511912,49.000000
736.526946,35.000000
736.541979,50.000000
736.557012,54.000000
736.572045,32.000000
736.587078,37.000000
736.602110,46.000000
736.617142,59.000000
736.632175,48.000000
736.647207,73.000000
736.662238,30.000000
736.677270,51.000000
736.692301,42.000000
736.707332,53.000000
736.722363,42.000000
736.737394,26.000000
736.752425,52.000000
736.767455,78.000000
736.782486,21.000000
736.797516,78.000000
736.812546,50.000000
736.827575,77.000000
736.842605,20.000000
736.857634,62.000000
736.872663,80.000000
736.887692,52.000000
736.902721,43.000000
736.917749,28.000000
736.932778,49.000000
736.947806,63.000000
736.962834,41.000000
736.977861,61.000000
736.992889,36.000000
737.007916,83.000000
737.022944,37.000000
737.037971,12.000000
737.052997,70.000000
737.068024,73.000000
737.083050,55.000000
737.098077,36.000000
737.113103,48.000000
737.128129,46.000000
737.143154,49.000000
737.158180,38.000000
737.173205,76.000000
737.188230,104.000000
737.203255,54.000000
737.218280,48.000000
737.233304,23.000000
737.248328,74.000000
737.263353,57.000000
737.278377,99.000000
737.293400,55.000000
737.308424,54.000000
737.323447,29.000000
737.338470,62.000000
737.353493,60.000000
737.368516,49.000000
737.383539,64.000000
737.398561,31.000000
737.413583,23.000000
737.428605,69.000000
737.443627,68.000000
737.458649,61.000000
737.473670,47.000000
737.488692,75.000000
737.503713,61.000000
737.518734,80.000000
737.533754,30.000000
737.548775,75.000000
737.563795,75.000000
737.578815,54.000000
737.593835,71.000000
737.608855,53.000000
737.623874,54.000000
737.638894,70.000000
737.653913,72.000000
737.668932,5.000000
737.683951,46.000000
737.698969,42.000000
737.713987,45.000000
737.729006,82.000000
737.744024,93.000000
737.759041,83.000000
737.774059,51.000000
737.789077,50.000000
737.804094,37.000000
737.819111,73.000000
737.834128,58.000000
737.849144,44.000000
737.864161,42.000000
737.879177,35.000000
737.894193,5.000000
737.909209,59.000000
737.924225,41.000000
737.939240,57.000000
737.954255,39.000000
737.969271,46.000000
737.984286,67.000000
737.999300,68.000000
738.014315,55.000000
738.029329,51.000000
738.044343,67.000000
738.059357,64.000000
738.074371,74.000000
738.089385,32.000000
738.104398,48.000000
738.119411,76.000000
738.134424,20.000000
738.149437,80.000000
738.164450,72.000000
738.179462,83.000000
738.194474,66.000000
738.209486,36.000000
738.224498,67.000000
738.239510,56.000000
738.254521,54.000000
738.269532,44.000000
738.284544,32.000000
738.299554,37.000000
738.314565,56.000000
738.329576,85.000000
738.344586,29.000000
738.359596,40.000000
738.374606,37.000000
738.389616,69.000000
738.404625,79.000000
738.419634,72.000000
738.434644,65.000000
738.449653,57.000000
738.464661,77.000000
738.479670,69.000000
738.494678,47.000000
738.509686,48.000000
738.524694,40.000000
738.539702,74.000000
738.554710,78.000000
738.569717,76.000000
738.584724,71.000000
738.599731,40.000000
738.614738,35.000000
738.629745,36.000000
738.644751,44.000000
738.659758,60.000000
738.674764,55.000000
738.689770,47.000000
738.704775,40.000000
738.719781,76.000000
738.734786,77.000000
738.749791,84.000000
738.764796,37.000000
738.779801,56.000000
738.794805,46.000000
738.809809,63.000000
738.824814,65.000000
738.839817,65.000000
738.854821,38.000000
738.869825,64.000000
738.884828,68.000000
738.899831,85.000000
738.914834,25.000000
738.929837,36.000000
738.944839,46.000000
738.959842,68.000000
738.974844,51.000000
738.989846,74.000000
739.004848,41.000000
739.019849,41.000000
739.034851,51.000000
739.049852,58.000000
739.064853,86.000000
739.079854,47.000000
739.094855,59.000000
739.109855,74.000000
739.124855,54.000000
739.139855,78.000000
739.154855,59.000000
739.169855,41.000000
739.184854,41.000000
739.199854,68.000000
739.214853,75.000000
739.229851,27.000000
739.244850,55.000000
739.259849,45.000000
739.274847,61.000000
739.289845,93.000000
739.304843,52.000000
739.319841,44.000000
739.334838,33.000000
739.349836,57.000000
739.364833,45.000000
739.379830,45.000000
739.394826,61.000000
739.409823,17.000000
739.424819,60.000000
739.439815,78.000000
739.454811,68.000000
739.469807,49.000000
739.484803,73.000000
739.499798,74.000000
739.514793,57.000000
739.529788,54.000000
739.544783,78.000000
739.559778,65.000000
739.574772,47.000000
739.589766,69.000000
739.604760,100.000000
739.619754,56.000000
739.634748,57.000000
739.649741,47.000000
739.664735,71.000000
739.679728,36.000000
739.694721,75.000000
739.709713,45.000000
739.724706,69.000000
739.739698,49.000000
739.754690,55.000000
739.769682,44.000000
739.784674,61.000000
739.799665,86.000000
739.814656,55.000000
739.829647,45.000000
739.844638,48.000000
739.859629,68.000000
739.874620,86.000000
739.889610,62.000000
739.904600,66.000000
739.919590,62.000000
739.934580,76.000000
739.949569,65.000000
739.964559,66.000000
739.979548,28.000000
739.994537,72.000000
740.009526,53.000000
740.024514,89.000000
740.039502,88.000000
740.054491,53.000000
740.069479,38.000000
740.084466,58.000000
740.099454,64.000000
740.114441,69.000000
740.129429,91.000000
740.144416,23.000000
740.159402,61.000000
740.174389,27.000000
740.189375,79.000000
740.204362,61.000000
740.219348,51.000000
740.234334,71.000000
740.249319,49.000000
740.264305,54.000000
740.279290,53.000000
740.294275,51.000000
740.309260,31.000000
740.324244,41.000000
740.339229,78.000000
740.354213,77.000000
740.369197,55.000000
740.384181,45.000000
740.399165,48.000000
740.414148,34.000000
740.429132,71.000000
740.444115,65.000000
740.459098,55.000000
740.474080,35.000000
740.489063,43.000000
740.504045,61.000000
740.519027,51.000000
740.534009,72.000000
740.548991,61.000000
740.563972,65.000000
740.578954,82.000000
740.593935,89.000000
740.608916,130.000000
740.623897,137.000000
740.638877,64.000000
740.653857,103.000000
740.668838,69.000000
740.683818,46.000000
740.698797,65.000000
740.713777,70.000000
740.728756,54.000000
740.743735,52.000000
740.758714,92.000000
740.773693,80.000000
740.788672,32.000000
740.803650,25.000000
740.818628,84.000000
740.833606,63.000000
740.848584,49.000000
740.863562,29.000000
740.878539,41.000000
740.893516,42.000000
740.908493,74.000000
740.923470,80.000000
740.938447,50.000000
740.953423,35.000000
740.968399,80.000000
740.983376,52.000000
740.998351,92.000000
741.013327,41.000000
741.028302,54.000000
741.043278,54.000000
741.058253,37.000000
741.073228,55.000000
741.088202,27.000000
741.103177,54.000000
741.118151,51.000000
741.133125,52.000000
741.148099,65.000000
741.163073,50.000000
741.178046,59.000000
741.193019,68.000000
741.207992,80.000000
741.222965,42.000000
741.237938,68.000000
741.252910,46.000000
741.267883,81.000000
741.282855,29.000000
741.297827,54.000000
741.312798,73.000000
741.327770,61.000000
741.342741,35.000000
741.357712,24.000000
741.372683,76.000000
741.387654,63.000000
741.402625,33.000000
741.417595,45.000000
741.432565,64.000000
741.447535,51.000000
741.462505,22.000000
741.477474,120.000000
741.492444,19.000000
741.507413,48.000000
741.522382,73.000000
741.537350,34.000000
741.552319,62.000000
741.567287,39.000000
741.582255,68.000000
741.597223,61.000000
741.612191,73.000000
741.627159,52.000000
741.642126,84.000000
741.657093,95.000000
741.672060,46.000000
741.687027,52.000000
741.701994,44.000000
741.716960,67.000000
741.731926,53.000000
741.746892,68.000000
741.761858,62.000000
741.776824,88.000000
741.791789,45.000000
741.806754,70.000000
741.821719,88.000000
741.836684,53.000000
741.851648,51.000000
741.866613,31.000000
741.881577,81.000000
741.896541,73.000000
741.911505,66.000000
741.926469,51.000000
741.941432,52.000000
741.956395,91.000000
741.971358,72.000000
741.986321,63.000000
742.001284,72.000000
742.016246,31.000000
742.031208,59.000000
742.046170,67.000000
742.061132,36.000000
742.076094,70.000000
742.091055,67.000000
742.106016,73.000000
742.120977,30.000000
742.135938,69.000000
742.150899,61.000000
742.165859,93.000000
742.180820,37.000000
742.195780,40.000000
742.210740,61.000000
742.225699,47.000000
742.240659,37.000000
742.255618,29.000000
742.270577,70.000000
742.285536,64.000000
742.300494,90.000000
742.315453,78.000000
742.330411,64.000000
742.345369,38.000000
742.360327,54.000000
742.375285,42.000000
742.390242,49.000000
742.405199,62.000000
742.420157,34.000000
742.435113,51.000000
742.450070,74.000000
742.465027,67.000000
742.479983,58.000000
742.494939,39.000000
742.509895,64.000000
742.524850,74.000000
742.539806,70.000000
742.554761,63.000000
742.569716,85.000000
742.584671,32.000000
742.599626,77.000000
742.614580,43.000000
742.629535,86.000000
742.644489,67.000000
742.659443,69.000000
742.674396,89.000000
742.689350,77.000000
742.704303,65.000000
742.719256,61.000000
742.734209,74.000000
742.749162,14.000000
742.764114,76.000000
742.779067,36.000000
742.794019,68.000000
742.808971,95.000000
742.823922,92.000000
742.838874,162.000000
742.853825,209.000000
742.868776,171.000000
742.883727,153.000000
742.898678,81.000000
742.913628,81.000000
742.928579,63.000000
742.943529,93.000000
742.958479,73.000000
742.973428,46.000000
742.988378,40.000000
743.003327,61.000000
743.018276,78.000000
743.033225,40.000000
743.048174,52.000000
743.063123,65.000000
743.078071,73.000000
743.093019,61.000000
743.107967,51.000000
743.122915,59.000000
743.137862,63.000000
743.152809,78.000000
743.167757,83.000000
743.182703,83.000000
743.197650,65.000000
743.212597,71.000000
743.227543,61.000000
743.242489,76.000000
743.257435,59.000000
743.272381,56.000000
743.287326,73.000000
743.302272,76.000000
743.317217,32.000000
743.332162,40.000000
743.347106,78.000000
743.362051,46.000000
743.376995,46.000000
743.391939,64.000000
743.406883,69.000000
743.421827,67.000000
743.436771,69.000000
743.451714,68.000000
743.466657,50.000000
743.481600,64.000000
743.496543,49.000000
743.511485,78.000000
743.526428,56.000000
743.541370,50.000000
743.556312,54.000000
743.571253,43.000000
743.586195,68.000000
743.601136,63.000000
743.616077,57.000000
743.631018,59.000000
743.645959,38.000000
743.660899,72.000000
743.675840,54.000000
743.690780,38.000000
743.705720,66.000000
743.720660,62.000000
743.735599,48.000000
743.750538,79.000000
743.765477,86.000000
743.780416,111.000000
743.795355,37.000000
743.810294,61.000000
743.825232,69.000000
743.840170,64.000000
743.855108,80.000000
743.870046,36.000000
743.884983,63.000000
743.899921,80.000000
743.914858,70.000000
743.929795,84.000000
743.944731,59.000000
743.959668,88.000000
743.974604,55.000000
743.989540,74.000000
744.004476,46.000000
744.019412,51.000000
744.034347,70.000000
744.049283,30.000000
744.064218,67.000000
744.079153,81.000000
744.094087,81.000000
744.109022,82.000000
744.123956,61.000000
744.138890,50.000000
744.153824,63.000000
744.168758,71.000000
744.183691,32.000000
744.198625,71.000000
744.213558,57.000000
744.228491,91.000000
744.243423,82.000000
744.258356,40.000000
744.273288,63.000000
744.288220,64.000000
744.303152,17.000000
744.318084,55.000000
744.333015,52.000000
744.347947,61.000000
744.362878,57.000000
744.377809,54.000000
744.392739,65.000000
744.407670,68.000000
744.422600,81.000000
744.437530,64.000000
744.452460,40.000000
744.467390,50.000000
744.482319,68.000000
744.497249,70.000000
744.512178,79.000000
744.527107,58.000000
744.542035,50.000000
744.556964,61.000000
744.571892,60.000000
744.586820,57.000000
744.601748,45.000000
744.616676,26.000000
744.631603,84.000000
744.646530,70.000000
744.661457,92.000000
744.676384,74.000000
744.691311,45.000000
744.706237,70.000000
744.721164,78.000000
744.736090,55.000000
744.751015,41.000000
744.765941,60.000000
744.780867,52.000000
744.795792,87.000000
744.810717,43.000000
744.825642,63.000000
744.840566,63.000000
744.855491,49.000000
744.870415,61.000000
744.885339,59.000000
744.900263,103.000000
744.915187,54.000000
744.930110,45.000000
744.945033,60.000000
744.959956,85.000000
744.974879,70.000000
744.989802,55.000000
745.004724,84.000000
745.019646,91.000000
745.034568,83.000000
745.049490,123.000000
745.064412,198.000000
745.079333,308.000000
745.094254,512.000000
745.109175,557.000000
745.124096,437.000000
745.139017,252.000000
745.153937,130.000000
745.168857,82.000000
745.183777,86.000000
745.198697,78.000000
745.213617,88.000000
745.228536,92.000000
745.243455,78.000000
745.258374,43.000000
745.273293,33.000000
745.288212,97.000000
745.303130,84.000000
745.318048,59.000000
745.332966,42.000000
745.347884,44.000000
745.362801,68.000000
745.377719,88.000000
745.392636,80.000000
745.407553,45.000000
745.422470,35.000000
745.437386,37.000000
745.452303,84.000000
745.467219,103.000000
745.482135,66.000000
745.497050,72.000000
745.511966,70.000000
745.526881,56.000000
745.541796,73.000000
745.556711,68.000000
745.571626,101.000000
745.586541,42.000000
745.601455,86.000000
745.616369,63.000000
745.631283,90.000000
745.646197,62.000000
745.661110,79.000000
745.676023,61.000000
745.690937,63.000000
745.705849,66.000000
745.720762,68.000000
745.735675,68.000000
745.750587,58.000000
745.765499,78.000000
745.780411,78.000000
745.795323,67.000000
745.810234,115.000000
745.825145,57.000000
745.840056,74.000000
745.854967,57.000000
745.869878,51.000000
745.884788,86.000000
745.899699,23.000000
745.914609,68.000000
745.929519,33.000000
745.944428,99.000000
745.959338,72.000000
745.974247,34.000000
745.989156,71.000000
746.004065,41.000000
746.018973,75.000000
746.033882,82.000000
746.048790,103.000000
746.063698,64.000000
746.078606,75.000000
746.093514,89.000000
746.108421,71.000000
746.123328,58.000000
746.138235,45.000000
746.153142,74.000000
746.168049,64.000000
746.182955,95.000000
746.197861,82.000000
746.212767,70.000000
746.227673,62.000000
746.242578,69.000000
746.257484,69.000000
746.272389,74.000000
746.287294,84.000000
746.302199,55.000000
746.317103,29.000000
746.332008,66.000000
746.346912,74.000000
746.361816,54.000000
746.376719,60.000000
746.391623,56.000000
746.406526,75.000000
746.421429,100.000000
746.436332,83.000000
746.451235,70.000000
746.466138,102.000000
746.481040,48.000000
746.495942,65.000000
746.510844,67.000000
746.525746,78.000000
746.540647,72.000000
746.555548,77.000000
746.570450,73.000000
746.585350,91.000000
746.600251,97.000000
746.615152,32.000000
746.630052,73.000000
746.644952,79.000000
746.659852,99.000000
746.674751,83.000000
746.689651,101.000000
746.704550,78.000000
746.719449,80.000000
746.734348,111.000000
746.749247,56.000000
746.764145,56.000000
746.779043,76.000000
746.793941,41.000000
746.808839,83.000000
746.823737,65.000000
746.838634,80.000000
746.853531,70.000000
746.868428,34.000000
746.883325,81.000000
746.898222,83.000000
746.913118,93.000000
746.928014,54.000000
746.942910,62.000000
746.957806,68.000000
746.972702,76.000000
746.987597,69.000000
747.002492,82.000000
747.017387,61.000000
747.032282,59.000000
747.047176,87.000000
747.062071,52.000000
747.076965,59.000000
747.091859,81.000000
747.106752,58.000000
747.121646,66.000000
747.136539,58.000000
747.151432,66.000000
747.166325,83.000000
747.181218,85.000000
747.196111,82.000000
747.211003,37.000000
747.225895,77.000000
747.240787,97.000000
747.255678,70.000000
747.270570,77.000000
747.285461,63.000000
747.300352,120.000000
747.315243,180.000000
747.330134,380.000000
747.345024,817.000000
747.359914,1141.000000
747.374804,1001.000000
747.389694,507.000000
747.404584,294.000000
747.419473,219.000000
747.434362,122.000000
747.449251,75.000000
747.464140,72.000000
747.479029,95.000000
747.493917,86.000000
747.508805,60.000000
747.523693,67.000000
747.538581,56.000000
747.553469,90.000000
747.568356,105.000000
747.583243,83.000000
747.598130,52.000000
747.613017,67.000000
747.627904,46.000000
747.642790,75.000000
747.657676,55.000000
747.672562,81.000000
747.687448,46.000000
747.702333,65.000000
747.717218,75.000000
747.732103,83.000000
747.746988,96.000000
747.761873,48.000000
747.776758,42.000000
747.791642,83.000000
747.806526,107.000000
747.821410,73.000000
747.836293,70.000000
747.851177,90.000000
747.866060,73.000000
747.880943,77.000000
747.895826,84.000000
747.910709,72.000000
747.925591,101.000000
747.940473,67.000000
747.955355,86.000000
747.970237,130.000000
747.985119,85.000000
748.000000,67.000000
748.014881,48.000000
748.029762,90.000000
748.044643,101.000000
748.059523,86.000000
748.074404,89.000000
748.089284,69.000000
748.104164,89.000000
748.119044,65.000000
748.133923,113.000000
748.148803,68.000000
748.163682,116.000000
748.178561,59.000000
748.193439,58.000000
748.208318,106.000000
748.223196,77.000000
748.238074,61.000000
748.252952,65.000000
748.267830,75.000000
748.282707,102.000000
748.297584,83.000000
748.312461,66.000000
748.327338,68.000000
748.342215,57.000000
748.357091,79.000000
748.371968,94.000000
748.386844,76.000000
748.401719,72.000000
748.416595,75.000000
748.431470,106.000000
748.446346,99.000000
748.461221,120.000000
748.476095,95.000000
748.490970,54.000000
748.505844,72.000000
748.520719,93.000000
748.535592,55.000000
748.550466,115.000000
748.565340,94.000000
748.580213,82.000000
748.595086,80.000000
748.609959,76.000000
748.624832,83.000000
748.639704,87.000000
748.654577,83.000000
748.669449,99.000000
748.684321,83.000000
748.699192,92.000000
748.714064,74.000000
748.728935,74.000000
748.743806,44.000000
748.758677,94.000000
748.773548,80.000000
748.788418,64.000000
748.803288,68.000000
748.818158,51.000000
748.833028,111.000000
748.847898,102.000000
748.862767,78.000000
748.877636,84.000000
748.892505,88.000000
748.907374,51.000000
748.922243,65.000000
748.937111,77.000000
748.951979,50.000000
748.966847,101.000000
748.981715,78.000000
748.996582,107.000000
749.011450,55.000000
749.026317,48.000000
749.041184,74.000000
749.056050,89.000000
749.070917,70.000000
749.085783,78.000000
749.100649,93.000000
749.115515,91.000000
749.130381,88.000000
749.145246,67.000000
749.160111,75.000000
749.174976,127.000000
749.189841,94.000000
749.204706,73.000000
749.219570,54.000000
749.234434,72.000000
749.249298,100.000000
749.264162,114.000000
749.279026,74.000000
749.293889,73.000000
749.308752,97.000000
749.323615,127.000000
749.338478,63.000000
749.353341,115.000000
749.368203,99.000000
749.383065,79.000000
749.397927,104.000000
749.412789,85.000000
749.427650,84.000000
749.442511,86.000000
749.457373,109.000000
749.472233,80.000000
749.487094,116.000000
749.501955,90.000000
749.516815,104.000000
749.531675,114.000000
749.546535,83.000000
749.561394,148.000000
749.576254,263.000000
749.591113,517.000000
749.605972,1430.000000
749.620831,3146.000000
749.635689,4584.000000
749.650548,3349.000000
749.665406,1433.000000
749.680264,578.000000
749.695122,249.000000
749.709979,140.000000
749.724836,97.000000
749.739694,95.000000
749.754550,76.000000
749.769407,66.000000
749.784264,76.000000
749.799120,78.000000
749.813976,63.000000
749.828832,68.000000
749.843688,104.000000
749.858543,103.000000
749.873398,94.000000
749.888253,75.000000
749.903108,97.000000
749.917963,107.000000
749.932817,81.000000
749.947671,94.000000
749.962525,40.000000
749.977379,75.000000
749.992233,68.000000
750.007086,97.000000
750.021939,62.000000
750.036792,91.000000
750.051645,123.000000
750.066497,68.000000
750.081350,116.000000
750.096202,68.000000
750.111054,66.000000
750.125905,70.000000
750.140757,71.000000
750.155608,81.000000
750.170459,78.000000
750.185310,91.000000
750.200161,62.000000
750.215011,107.000000
750.229861,78.000000
750.244711,87.000000
750.259561,75.000000
750.274411,95.000000
750.289260,59.000000
750.304109,64.000000
750.318958,64.000000
750.333807,67.000000
750.348656,76.000000
750.363504,92.000000
750.378352,98.000000
750.393200,98.000000
750.408048,81.000000
750.422895,61.000000
750.437743,76.000000
750.452590,108.000000
750.467437,95.000000
750.482283,93.000000
750.497130,110.000000
750.511976,76.000000
750.526822,122.000000
750.541668,124.000000
750.556514,87.000000
750.571359,107.000000
750.586204,83.000000
750.601049,91.000000
750.615894,87.000000
750.630739,109.000000
750.645583,81.000000
750.660427,90.000000
750.675271,87.000000
750.690115,68.000000
750.704958,109.000000
750.719802,73.000000
750.734645,98.000000
750.749488,117.000000
750.764330,95.000000
750.779173,71.000000
750.794015,123.000000
750.808857,94.000000
750.823699,102.000000
750.838541,101.000000
750.853382,93.000000
750.868223,68.000000
750.883064,92.000000
750.897905,120.000000
750.912746,74.000000
750.927586,98.000000
750.942426,90.000000
750.957266,95.000000
750.972106,87.000000
750.986945,99.000000
751.001785,74.000000
751.016624,47.000000
751.031463,112.000000
751.046301,110.000000
751.061140,93.000000
751.075978,74.000000
751.090816,131.000000
751.105654,107.000000
751.120492,84.000000
751.135329,73.000000
751.150166,73.000000
751.165003,82.000000
751.179840,109.000000
751.194677,76.000000
751.209513,105.000000
751.224349,138.000000
751.239185,59.000000
751.254021,108.000000
751.268856,110.000000
751.283692,114.000000
751.298527,110.000000
751.313362,122.000000
751.328196,78.000000
751.343031,113.000000
751.357865,113.000000
751.372699,104.000000
751.387533,74.000000
751.402367,90.000000
751.417200,86.000000
751.432033,115.000000
751.446866,71.000000
751.461699,46.000000
751.476532,104.000000
751.491364,64.000000
751.506196,60.000000
751.521028,101.000000
751.535860,98.000000
751.550692,105.000000
751.565523,106.000000
751.580354,102.000000
751.595185,106.000000
751.610016,93.000000
751.624846,116.000000
751.639676,91.000000
751.654506,118.000000
751.669336,91.000000
751.684166,97.000000
751.698995,115.000000
751.713824,106.000000
751.728653,96.000000
751.743482,96.000000
751.758311,75.000000
751.773139,105.000000
751.787967,82.000000
751.802795,91.000000
751.817623,118.000000
751.832450,143.000000
751.847278,293.000000
751.862105,508.000000
751.876932,1598.000000
751.891758,4879.000000
751.906585,11953.000000
751.921411,13620.000000
751.936237,6595.000000
751.951063,2142.000000
751.965889,684.000000
751.980714,294.000000
751.995539,150.000000
752.010364,167.000000
752.025189,128.000000
752.040013,85.000000
752.054838,122.000000
752.069662,109.000000
752.084486,135.000000
752.099310,88.000000
752.114133,79.000000
752.128956,108.000000
752.143779,87.000000
752.158602,90.000000
752.173425,101.000000
752.188247,134.000000
752.203070,108.000000
752.217892,115.000000
752.232713,162.000000
752.247535,107.000000
752.262356,109.000000
752.277178,120.000000
752.291998,111.000000
752.306819,131.000000
752.321640,107.000000
752.336460,92.000000
752.351280,96.000000
752.366100,57.000000
752.380920,135.000000
752.395739,133.000000
752.410558,114.000000
752.425377,141.000000
752.440196,101.000000
752.455015,118.000000
752.469833,84.000000
752.484652,101.000000
752.499469,105.000000
752.514287,91.000000
752.529105,84.000000
752.543922,123.000000
752.558739,126.000000
752.573556,95.000000
752.588373,120.000000
752.603189,105.000000
752.618006,144.000000
752.632822,127.000000
752.647638,119.000000
752.662453,140.000000
752.677269,119.000000
752.692084,95.000000
752.706899,111.000000
752.721714,133.000000
752.736528,129.000000
752.751343,104.000000
752.766157,105.000000
752.780971,124.000000
752.795784,95.000000
752.810598,134.000000
752.825411,126.000000
752.840224,119.000000
752.855037,127.000000
752.869850,108.000000
752.884662,102.000000
752.899475,116.000000
752.914287,100.000000
752.929098,66.000000
752.943910,99.000000
752.958721,113.000000
752.973533,144.000000
752.988344,118.000000
753.003154,106.000000
753.017965,101.000000
753.032775,104.000000
753.047585,128.000000
753.062395,111.000000
753.077205,86.000000
753.092014,100.000000
753.106824,122.000000
753.121633,142.000000
753.136442,89.000000
753.151250,96.000000
753.166059,121.000000
753.180867,115.000000
753.195675,132.000000
753.210482,107.000000
753.225290,88.000000
753.240097,89.000000
753.254904,83.000000
753.269711,113.000000
753.284518,122.000000
753.299325,85.000000
753.314131,129.000000
753.328937,121.000000
753.343743,83.000000
753.358548,95.000000
753.373354,116.000000
753.388159,109.000000
753.402964,116.000000
753.417769,103.000000
753.432573,151.000000
753.447378,127.000000
753.462182,170.000000
753.476986,92.000000
753.491789,128.000000
753.506593,113.000000
753.521396,124.000000
753.536199,139.000000
753.551002,138.000000
753.565805,106.000000
753.580607,76.000000
753.595409,139.000000
753.610211,103.000000
753.625013,85.000000
753.639815,81.000000
753.654616,126.000000
753.669417,161.000000
753.684218,112.000000
753.699019,125.000000
753.713819,134.000000
753.728620,111.000000
753.743420,122.000000
753.758220,157.000000
753.773019,132.000000
753.787819,124.000000
753.802618,121.000000
753.817417,106.000000
753.832216,130.000000
753.847014,154.000000
753.861813,161.000000
753.876611,114.000000
753.891409,130.000000
753.906207,127.000000
753.921004,97.000000
753.935801,143.000000
753.950598,142.000000
753.965395,130.000000
753.980192,127.000000
753.994988,160.000000
754.009785,113.000000
754.024581,153.000000
754.039376,123.000000
754.054172,162.000000
754.068967,171.000000
754.083762,141.000000
754.098557,163.000000
754.113352,204.000000
754.128147,235.000000
754.142941,308.000000
754.157735,694.000000
754.172529,2602.000000
754.187322,9928.000000
754.202116,25097.000000
754.216909,30349.000000
754.231702,14571.000000
754.246495,4156.000000
754.261287,1160.000000
754.276080,330.000000
754.290872,228.000000
754.305664,171.000000
754.320456,205.000000
754.335247,174.000000
754.350038,169.000000
754.364829,120.000000
754.379620,164.000000
754.394411,146.000000
754.409201,115.000000
754.423992,128.000000
754.438782,124.000000
754.453571,115.000000
754.468361,144.000000
754.483150,131.000000
754.497939,132.000000
754.512728,141.000000
754.527517,116.000000
754.542306,148.000000
754.557094,122.000000
754.571882,148.000000
754.586670,173.000000
754.601457,134.000000
754.616245,121.000000
754.631032,126.000000
754.645819,139.000000
754.660606,157.000000
754.675392,161.000000
754.690179,109.000000
754.704965,136.000000
754.719751,139.000000
754.734536,123.000000
754.749322,102.000000
754.764107,131.000000
754.778892,127.000000
754.793677,119.000000
754.808461,112.000000
754.823246,141.000000
754.838030,152.000000
754.852814,146.000000
754.867598,131.000000
754.882381,140.000000
754.897165,142.000000
754.911948,142.000000
754.926731,119.000000
754.941513,136.000000
754.956296,128.000000
754.971078,136.000000
754.985860,157.000000
755.000642,115.000000
755.015423,147.000000
755.030205,140.000000
755.044986,163.000000
755.059767,166.000000
755.074548,111.000000
755.089328,83.000000
755.104108,115.000000
755.118889,122.000000
755.133668,161.000000
755.148448,144.000000
755.163228,127.000000
755.178007,102.000000
755.192786,142.000000
755.207565,131.000000
755.222343,157.000000
755.237121,131.000000
755.251900,124.000000
755.266678,166.000000
755.281455,113.000000
755.296233,153.000000
755.311010,142.000000
755.325787,185.000000
755.340564,146.000000
755.355341,173.000000
755.370117,114.000000
755.384893,156.000000
755.399669,145.000000
755.414445,128.000000
755.429220,183.000000
755.443996,162.000000
755.458771,154.000000
755.473546,139.000000
755.488320,123.000000
755.503095,151.000000
755.517869,132.000000
755.532643,166.000000
755.547417,162.000000
755.562191,129.000000
755.576964,120.000000
755.591737,198.000000
755.606510,187.000000
755.621283,157.000000
755.636055,180.000000
755.650828,112.000000
755.665600,152.000000
755.680372,165.000000
755.695143,142.000000
755.709915,166.000000
755.724686,136.000000
755.739457,169.000000
755.754228,166.000000
755.768998,170.000000
755.783769,146.000000
755.798539,145.000000
755.813309,199.000000
755.828078,149.000000
755.842848,154.000000
755.857617,174.000000
755.872386,164.000000
755.887155,144.000000
755.901924,170.000000
755.916692,166.000000
755.931460,189.000000
755.946228,206.000000
755.960996,177.000000
755.975763,164.000000
755.990531,160.000000
756.005298,179.000000
756.020065,173.000000
756.034831,151.000000
756.049598,188.000000
756.064364,189.000000
756.079130,191.000000
756.093896,198.000000
756.108661,196.000000
756.123427,183.000000
756.138192,170.000000
756.152957,182.000000
756.167722,187.000000
756.182486,185.000000
756.197250,202.000000
756.212014,187.000000
756.226778,175.000000
756.241542,252.000000
756.256305,216.000000
756.271068,227.000000
756.285831,228.000000
756.300594,215.000000
756.315357,211.000000
756.330119,238.000000
756.344881,311.000000
756.359643,256.000000
756.374405,257.000000
756.389166,327.000000
756.403927,345.000000
756.418688,392.000000
756.433449,478.000000
756.448210,543.000000
756.462970,1078.000000
756.477730,3905.000000
756.492490,18003.000000
756.507250,62064.000000
756.522009,105744.000000
756.536769,62547.000000
756.551528,14735.000000
756.566287,2943.000000
756.581045,821.000000
756.595804,501.000000
756.610562,485.000000
756.625320,364.000000
756.640077,362.000000
756.654835,357.000000
756.669592,305.000000
756.684349,263.000000
756.699106,282.000000
756.713863,243.000000
756.728619,246.000000
756.743376,256.000000
756.758132,220.000000
756.772887,232.000000
756.787643,225.000000
756.802398,255.000000
756.817153,220.000000
756.831908,193.000000
756.846663,208.000000
756.861417,182.000000
756.876172,221.000000
756.890926,210.000000
756.905680,240.000000
756.920433,212.000000
756.935187,225.000000
756.949940,280.000000
756.964693,229.000000
756.979445,211.000000
756.994198,190.000000
757.008950,172.000000
757.023702,213.000000
757.038454,223.000000
757.053206,256.000000
757.067957,261.000000
757.082708,192.000000
757.097459,228.000000
757.112210,223.000000
757.126961,235.000000
757.141711,240.000000
757.156461,214.000000
757.171211,244.000000
757.185961,205.000000
757.200710,195.000000
757.215459,217.000000
757.230208,198.000000
757.244957,180.000000
757.259706,229.000000
757.274454,235.000000
757.289202,257.000000
757.303950,200.000000
757.318698,213.000000
757.333445,232.000000
757.348193,220.000000
757.362940,203.000000
757.377686,238.000000
757.392433,212.000000
757.407179,198.000000
757.421926,196.000000
757.436671,225.000000
757.451417,257.000000
757.466163,227.000000
757.480908,213.000000
757.495653,226.000000
757.510398,286.000000
757.525143,223.000000
757.539887,220.000000
757.554631,222.000000
757.569375,175.000000
757.584119,206.000000
757.598862,178.000000
757.613606,226.000000
757.628349,212.000000
757.643092,199.000000
757.657834,192.000000
757.672577,297.000000
757.687319,279.000000
757.702061,217.000000
757.716803,222.000000
757.731544,179.000000
757.746286,208.000000
757.761027,216.000000
757.775768,230.000000
757.790508,253.000000
757.805249,200.000000
757.819989,228.000000
757.834729,179.000000
757.849469,256.000000
757.864209,191.000000
757.878948,220.000000
757.893687,227.000000
757.908426,210.000000
757.923165,238.000000
757.937903,242.000000
757.952642,261.000000
757.967380,253.000000
757.982117,239.000000
757.996855,237.000000
758.011592,235.000000
758.026330,310.000000
758.041067,240.000000
758.055803,228.000000
758.070540,286.000000
758.085276,271.000000
758.100012,277.000000
758.114748,255.000000
758.129484,296.000000
758.144219,276.000000
758.158954,303.000000
758.173689,324.000000
758.188424,284.000000
758.203159,290.000000
758.217893,320.000000
758.232627,290.000000
758.247361,301.000000
758.262094,320.000000
758.276828,349.000000
758.291561,355.000000
758.306294,286.000000
758.321027,349.000000
758.335759,291.000000
758.350492,341.000000
758.365224,330.000000
758.379956,345.000000
758.394687,319.000000
758.409419,389.000000
758.424150,360.000000
758.438881,352.000000
758.453612,392.000000
758.468342,443.000000
758.483073,409.000000
758.497803,420.000000
758.512533,450.000000
758.527263,490.000000
758.541992,482.000000
758.556721,486.000000
758.571450,480.000000
758.586179,533.000000
758.600908,570.000000
758.615636,568.000000
758.630364,595.000000
758.645092,573.000000
758.659820,653.000000
758.674547,699.000000
758.689275,790.000000
758.704002,885.000000
758.718728,860.000000
758.733455,995.000000
758.748181,1252.000000
758.762908,1509.000000
758.777634,2358.000000
758.792359,5933.000000
758.807085,33015.000000
758.821810,185035.000000
758.836535,538035.000000
758.851260,558717.000000
758.865984,184942.000000
758.880709,23213.000000
758.895433,3333.000000
758.910157,979.000000
758.924881,563.000000
758.939604,541.000000
758.954328,431.000000
758.969051,316.000000
758.983773,354.000000
758.998496,326.000000
759.013218,293.000000
759.027941,288.000000
759.042663,243.000000
759.057384,257.000000
759.072106,323.000000
759.086827,314.000000
759.101548,262.000000
759.116269,325.000000
759.130990,337.000000
759.145710,346.000000
759.160430,308.000000
759.175150,316.000000
759.189870,348.000000
759.204590,311.000000
759.219309,309.000000
759.234028,281.000000
759.248747,306.000000
759.263465,300.000000
759.278184,293.000000
759.292902,296.000000
759.307620,276.000000
759.322338,236.000000
759.337055,293.000000
759.351773,246.000000
759.366490,295.000000
759.381207,260.000000
759.395923,303.000000
759.410640,249.000000
759.425356,169.000000
759.440072,217.000000
759.454788,241.000000
759.469503,260.000000
759.484218,178.000000
759.498934,163.000000
759.513648,173.000000
759.528363,155.000000
759.543078,143.000000
759.557792,175.000000
759.572506,173.000000
759.587219,126.000000
759.601933,192.000000
759.616646,139.000000
759.631359,134.000000
759.646072,145.000000
759.660785,146.000000
759.675497,155.000000
759.690210,160.000000
759.704922,196.000000
759.719633,134.000000
759.734345,84.000000
759.749056,147.000000
759.763767,149.000000
759.778478,113.000000
759.793189,125.000000
759.807899,120.000000
759.822610,72.000000
759.837320,119.000000
