#monitor on
#{"CCD_temperature": "-89", "FELP": "1.3", "FELRR": "0.75", "FEL_lambda": "610", "NIRP": "679", "NIR_lambda": "797.1", "addenda": [0, "longExposures42"], "bg_file_name": "longExposuresBG27", "center_lambda": 750.5, "dark_region": null, "exposure": 200.0, "gain": 135, "grating": 2, "series": "", "slits": "50", "subtrahenda": ["longExposuresBG26"], "y_max": 400, "y_min": 0}
Wavelength,Signal
nm,arb. u.
738.558773,-899.000000
738.573796,-842.000000
738.588820,-881.000000
738.603843,-746.000000
738.618865,-768.000000
738.633888,-876.000000
738.648910,-856.000000
738.663932,-803.000000
738.678954,-900.000000
738.693976,-894.000000
738.708998,-911.000000
738.724019,-846.000000
738.739041,-803.000000
738.754062,-885.000000
738.769082,-806.000000
738.784103,-871.000000
738.799124,-892.000000
738.814144,-873.000000
738.829164,-741.000000
738.844184,-919.000000
738.859204,-815.000000
738.874223,-720.000000
738.889242,-844.000000
738.904262,-837.000000
738.919280,-820.000000
738.934299,-784.000000
738.949318,-891.000000
738.964336,-875.000000
738.979354,-772.000000
738.994372,-850.000000
739.009390,-845.000000
739.024408,-703.000000
739.039425,-648.000000
739.054442,-857.000000
739.069459,-801.000000
739.084476,-826.000000
739.099493,-1010.000000
739.114509,-825.000000
739.129526,-833.000000
739.144542,-766.000000
739.159558,-889.000000
739.174573,-976.000000
739.189589,-887.000000
739.204604,-777.000000
739.219619,-685.000000
739.234634,-854.000000
739.249649,-837.000000
739.264664,-929.000000
739.279678,-870.000000
739.294692,-772.000000
739.309706,-783.000000
739.324720,-724.000000
739.339734,-727.000000
739.354747,-841.000000
739.369760,-704.000000
739.384773,-894.000000
739.399786,-860.000000
739.414799,-825.000000
739.429811,-937.000000
739.444823,-779.000000
739.459835,-791.000000
739.474847,-799.000000
739.489859,-880.000000
739.504871,-771.000000
739.519882,-817.000000
739.534893,-822.000000
739.549904,-790.000000
739.564915,-912.000000
739.579925,-903.000000
739.594935,-885.000000
739.609946,-815.000000
739.624956,-984.000000
739.639965,-865.000000
739.654975,-882.000000
739.669984,-761.000000
739.684994,-794.000000
739.700003,-883.000000
739.715011,-801.000000
739.730020,-772.000000
739.745028,-953.000000
739.760037,-755.000000
739.775045,-749.000000
739.790053,-823.000000
739.805060,-729.000000
739.820068,-899.000000
739.835075,-764.000000
739.850082,-807.000000
739.865089,-898.000000
739.880096,-813.000000
739.895102,-700.000000
739.910108,-892.000000
739.925115,-943.000000
739.940121,-761.000000
739.955126,-716.000000
739.970132,-908.000000
739.985137,-825.000000
740.000142,-827.000000
740.015147,-765.000000
740.030152,-863.000000
740.045157,-875.000000
740.060161,-773.000000
740.075165,-740.000000
740.090169,-841.000000
740.105173,-769.000000
740.120177,-819.000000
740.135180,-749.000000
740.150183,-841.000000
740.165186,-815.000000
740.180189,-812.000000
740.195192,-814.000000
740.210194,-787.000000
740.225197,-904.000000
740.240199,-768.000000
740.255201,-682.000000
740.270202,-387.000000
740.285204,4492.000000
740.300205,25134.000000
740.315206,2403.000000
740.330207,-686.000000
740.345208,-901.000000
740.360209,-787.000000
740.375209,-904.000000
740.390209,-809.000000
740.405209,-840.000000
740.420209,-874.000000
740.435208,-818.000000
740.450208,-875.000000
740.465207,-971.000000
740.480206,-856.000000
740.495205,-842.000000
740.510203,-772.000000
740.525202,-917.000000
740.540200,-807.000000
740.555198,-782.000000
740.570196,-858.000000
740.585194,-898.000000
740.600191,-923.000000
740.615188,-803.000000
740.630185,-886.000000
740.645182,-866.000000
740.660179,-805.000000
740.675175,-707.000000
740.690172,-866.000000
740.705168,-956.000000
740.720164,-868.000000
740.735159,-781.000000
740.750155,-838.000000
740.765150,-753.000000
740.780145,-816.000000
740.795140,-751.000000
740.810135,-833.000000
740.825130,-887.000000
740.840124,-877.000000
740.855118,-891.000000
740.870112,-837.000000
740.885106,-891.000000
740.900100,-876.000000
740.915093,-930.000000
740.930086,-847.000000
740.945079,-809.000000
740.960072,-793.000000
740.975065,-825.000000
740.990057,-818.000000
741.005049,-898.000000
741.020041,-813.000000
741.035033,-829.000000
741.050025,-916.000000
741.065016,-859.000000
741.080008,-822.000000
741.094999,-866.000000
741.109990,-907.000000
741.124980,-907.000000
741.139971,-788.000000
741.154961,-791.000000
741.169951,-864.000000
741.184941,-841.000000
741.199931,-917.000000
741.214920,-854.000000
741.229910,-897.000000
741.244899,-998.000000
741.259888,-892.000000
741.274876,-929.000000
741.289865,-802.000000
741.304853,-838.000000
741.319842,-773.000000
741.334830,-800.000000
741.349817,-948.000000
741.364805,-853.000000
741.379792,-859.000000
741.394779,-771.000000
741.409766,-833.000000
741.424753,-879.000000
741.439740,-785.000000
741.454726,-863.000000
741.469713,-882.000000
741.484699,-762.000000
741.499684,-807.000000
741.514670,-741.000000
741.529656,-787.000000
741.544641,-900.000000
741.559626,-810.000000
741.574611,-911.000000
741.589595,-931.000000
741.604580,-857.000000
741.619564,-891.000000
741.634548,-849.000000
741.649532,-853.000000
741.664516,-778.000000
741.679499,-875.000000
741.694483,-840.000000
741.709466,-926.000000
741.724449,-791.000000
741.739431,-868.000000
741.754414,-793.000000
741.769396,-937.000000
741.784378,-853.000000
741.799360,-855.000000
741.814342,-807.000000
741.829324,-788.000000
741.844305,-830.000000
741.859286,-857.000000
741.874267,-980.000000
741.889248,-913.000000
741.904228,-882.000000
741.919209,-862.000000
741.934189,-870.000000
741.949169,-863.000000
741.964149,-729.000000
741.979128,-725.000000
741.994108,-859.500000
742.009087,-775.500000
742.024066,-558.000000
742.039045,-861.000000
742.054024,-808.000000
742.069002,-878.000000
742.083980,-944.000000
742.098958,-851.000000
742.113936,-996.000000
742.128914,-913.000000
742.143891,-914.000000
742.158869,-759.000000
742.173846,-922.000000
742.188823,-929.000000
742.203799,-801.000000
742.218776,-816.000000
742.233752,-749.000000
742.248728,-817.000000
742.263704,-707.000000
742.278680,-811.000000
742.293655,-831.000000
742.308630,-808.000000
742.323606,-770.000000
742.338581,-647.000000
742.353555,-858.000000
742.368530,-883.000000
742.383504,-833.000000
742.398478,-812.000000
742.413452,-770.000000
742.428426,-873.500000
742.443400,-967.000000
742.458373,-899.000000
742.473346,-761.000000
742.488319,-853.000000
742.503292,-815.000000
742.518264,-879.000000
742.533237,-837.000000
742.548209,-822.000000
742.563181,-819.000000
742.578153,-869.000000
742.593124,-883.000000
742.608096,-867.000000
742.623067,-810.000000
742.638038,-816.000000
742.653009,-880.000000
742.667979,-808.000000
742.682950,-891.000000
742.697920,-845.000000
742.712890,-954.000000
742.727860,-1035.500000
742.742829,-881.000000
742.757799,-915.000000
742.772768,-886.500000
742.787737,-926.000000
742.802706,-889.000000
742.817675,-851.000000
742.832643,-888.000000
742.847611,-875.000000
742.862580,-857.000000
742.877547,-831.000000
742.892515,-839.000000
742.907483,-777.000000
742.922450,-904.000000
742.937417,-877.000000
742.952384,-865.000000
742.967351,-895.000000
742.982317,-856.000000
742.997283,-819.000000
743.012249,-904.000000
743.027215,-850.000000
743.042181,-872.000000
743.057147,-819.000000
743.072112,-947.000000
743.087077,-927.000000
743.102042,-906.000000
743.117007,-903.000000
743.131971,-954.000000
743.146936,-876.000000
743.161900,-774.000000
743.176864,-741.000000
743.191827,-919.000000
743.206791,-855.000000
743.221754,-783.000000
743.236717,-764.000000
743.251680,-900.000000
743.266643,-862.000000
743.281606,-791.000000
743.296568,-870.000000
743.311530,-831.000000
743.326492,-702.000000
743.341454,-795.000000
743.356416,-816.000000
743.371377,-930.000000
743.386338,-803.000000
743.401299,-876.000000
743.416260,-740.000000
743.431221,-745.000000
743.446181,-846.000000
743.461141,-837.000000
743.476101,-892.000000
743.491061,-880.000000
743.506021,-752.000000
743.520980,-823.000000
743.535939,-792.000000
743.550898,-802.000000
743.565857,-863.000000
743.580816,-804.000000
743.595774,-822.000000
743.610732,-829.000000
743.625690,-785.000000
743.640648,-816.000000
743.655606,-698.000000
743.670563,-821.000000
743.685521,-757.000000
743.700478,-793.000000
743.715434,-912.000000
743.730391,-823.000000
743.745348,-843.000000
743.760304,-859.000000
743.775260,-932.000000
743.790216,-838.000000
743.805171,-842.000000
743.820127,-841.000000
743.835082,-855.000000
743.850037,-879.000000
743.864992,-734.000000
743.879947,-766.000000
743.894901,-855.000000
743.909856,-857.000000
743.924810,-799.500000
743.939764,-830.500000
743.954717,-969.500000
743.969671,-910.000000
743.984624,-855.000000
743.999577,-800.000000
744.014530,-804.000000
744.029483,-817.000000
744.044435,-911.000000
744.059387,-806.000000
744.074340,-804.000000
744.089292,-916.000000
744.104243,-725.000000
744.119195,-903.000000
744.134146,-798.000000
744.149097,-849.000000
744.164048,-849.000000
744.178999,-894.000000
744.193949,-909.000000
744.208900,-726.000000
744.223850,-854.000000
744.238800,-884.000000
744.253749,-950.000000
744.268699,-754.000000
744.283648,-968.000000
744.298597,-898.000000
744.313546,-777.000000
744.328495,-815.000000
744.343444,-916.000000
744.358392,-897.000000
744.373340,-911.000000
744.388288,-891.000000
744.403236,-777.000000
744.418183,-715.000000
744.433131,-921.000000
744.448078,-871.000000
744.463025,-711.000000
744.477972,-805.000000
744.492918,-870.000000
744.507865,-866.000000
744.522811,-861.000000
744.537757,-838.000000
744.552702,-845.000000
744.567648,-839.000000
744.582593,-854.000000
744.597539,-863.000000
744.612484,-773.000000
744.627428,-815.000000
744.642373,-822.000000
744.657317,-938.000000
744.672261,-922.000000
744.687205,-803.000000
744.702149,-871.000000
744.717093,-786.000000
744.732036,-926.000000
744.746979,-876.000000
744.761922,-811.000000
744.776865,-760.000000
744.791808,-905.000000
744.806750,-909.000000
744.821692,-848.000000
744.836634,-803.000000
744.851576,-909.000000
744.866518,-916.000000
744.881459,-827.000000
744.896400,-833.000000
744.911341,-787.000000
744.926282,-849.000000
744.941223,-765.000000
744.956163,-772.000000
744.971103,-912.000000
744.986043,-767.000000
745.000983,-780.000000
745.015923,-811.000000
745.030862,-801.000000
745.045801,-845.000000
745.060740,-837.000000
745.075679,-852.000000
745.090618,-956.000000
745.105556,-843.000000
745.120494,-897.000000
745.135432,-788.000000
745.150370,-831.000000
745.165308,-841.000000
745.180245,-758.000000
745.195182,-848.000000
745.210119,-919.000000
745.225056,-820.000000
745.239993,-874.000000
745.254929,-830.000000
745.269865,-982.000000
745.284801,-822.000000
745.299737,-810.000000
745.314673,-855.000000
745.329608,-804.000000
745.344543,-869.000000
745.359478,-922.000000
745.374413,-873.000000
745.389348,-830.000000
745.404282,-844.000000
745.419216,-851.000000
745.434150,-858.000000
745.449084,-916.000000
745.464018,-945.000000
745.478951,-746.000000
745.493885,-840.000000
745.508818,-847.000000
745.523750,-799.000000
745.538683,-873.000000
745.553615,-833.000000
745.568548,-817.000000
745.583480,-884.000000
745.598411,-849.000000
745.613343,-830.000000
745.628274,-791.000000
745.643206,-869.000000
745.658137,-840.000000
745.673068,-823.000000
745.687998,-855.000000
745.702929,-831.000000
745.717859,-800.000000
745.732789,-823.000000
745.747719,-885.000000
745.762648,-833.000000
745.777578,-866.000000
745.792507,-848.000000
745.807436,-855.000000
745.822365,-880.000000
745.837293,-909.000000
745.852222,-879.000000
745.867150,-843.000000
745.882078,-832.000000
745.897006,-803.000000
745.911933,-843.000000
745.926861,-893.000000
745.941788,-753.000000
745.956715,-853.000000
745.971642,-929.000000
745.986568,-906.000000
746.001495,-859.000000
746.016421,-852.000000
746.031347,-865.000000
746.046273,-807.000000
746.061198,-832.000000
746.076124,-785.000000
746.091049,-845.000000
746.105974,-893.000000
746.120899,-819.000000
746.135823,-871.000000
746.150748,-775.000000
746.165672,-944.000000
746.180596,-811.000000
746.195520,-791.000000
746.210443,-786.000000
746.225367,-835.000000
746.240290,-752.000000
746.255213,-827.000000
746.270136,-877.000000
746.285058,-948.000000
746.299981,-761.000000
746.314903,-893.000000
746.329825,-844.000000
746.344747,-841.000000
746.359668,-834.000000
746.374590,-822.000000
746.389511,-849.000000
746.404432,-917.000000
746.419353,-853.000000
746.434273,-790.000000
746.449194,-735.000000
746.464114,-812.000000
746.479034,-770.000000
746.493954,-770.000000
746.508873,-856.000000
746.523793,-948.000000
746.538712,-828.000000
746.553631,-817.000000
746.568550,-909.000000
746.583468,-966.000000
746.598386,-811.000000
746.613305,-765.000000
746.628223,-829.000000
746.643140,-814.000000
746.658058,-837.000000
746.672975,-805.000000
746.687892,-732.000000
746.702809,-783.000000
746.717726,-776.000000
746.732643,-814.000000
746.747559,-885.000000
746.762475,-844.000000
746.777391,-843.000000
746.792307,-781.000000
746.807223,-864.000000
746.822138,-911.000000
746.837053,-876.000000
746.851968,-800.000000
746.866883,-920.000000
746.881797,-914.000000
746.896712,-894.000000
746.911626,-874.000000
746.926540,-864.000000
746.941453,-902.000000
746.956367,-852.000000
746.971280,-765.000000
746.986193,-852.000000
747.001106,-850.000000
747.016019,-839.000000
747.030932,-773.000000
747.045844,-857.000000
747.060756,-916.000000
747.075668,-769.000000
747.090580,-823.000000
747.105491,-907.000000
747.120402,-790.000000
747.135314,-790.000000
747.150224,-802.000000
747.165135,-870.000000
747.180046,-804.000000
747.194956,-903.000000
747.209866,-789.000000
747.224776,-896.000000
747.239686,-880.000000
747.254595,-822.000000
747.269504,-732.000000
747.284414,-780.000000
747.299322,-905.000000
747.314231,-869.000000
747.329140,-834.000000
747.344048,-756.000000
747.358956,-846.000000
747.373864,-922.000000
747.388771,-865.000000
747.403679,-902.000000
747.418586,-765.000000
747.433493,-763.000000
747.448400,-833.000000
747.463307,-787.000000
747.478213,-840.000000
747.493119,-872.000000
747.508026,-853.000000
747.522931,-836.000000
747.537837,-881.000000
747.552742,-818.000000
747.567648,-822.000000
747.582553,-894.000000
747.597458,-840.000000
747.612362,-839.000000
747.627267,-902.000000
747.642171,-918.000000
747.657075,-875.000000
747.671979,-868.000000
747.686882,-855.000000
747.701786,-828.000000
747.716689,-869.000000
747.731592,-919.000000
747.746495,-848.000000
747.761397,-880.000000
747.776300,-852.000000
747.791202,-860.000000
747.806104,-916.000000
747.821006,-769.000000
747.835907,-734.000000
747.850809,-740.000000
747.865710,-783.000000
747.880611,-829.000000
747.895512,-844.000000
747.910412,-766.000000
747.925313,-830.000000
747.940213,-890.000000
747.955113,-817.000000
747.970012,-898.000000
747.984912,-874.000000
747.999811,-887.000000
748.014710,-815.000000
748.029609,-808.000000
748.044508,-857.000000
748.059407,-840.000000
748.074305,-861.000000
748.089203,-839.000000
748.104101,-893.000000
748.118999,-929.000000
748.133896,-885.000000
748.148794,-786.000000
748.163691,-820.000000
748.178588,-904.000000
748.193484,-764.000000
748.208381,-797.000000
748.223277,-851.000000
748.238173,-809.000000
748.253069,-910.000000
748.267965,-856.000000
748.282860,-859.000000
748.297756,-921.000000
748.312651,-825.000000
748.327546,-861.000000
748.342440,-929.000000
748.357335,-910.000000
748.372229,-758.000000
748.387123,-843.000000
748.402017,-851.000000
748.416911,-962.000000
748.431804,-883.000000
748.446697,-889.000000
748.461590,-816.000000
748.476483,-800.000000
748.491376,-787.000000
748.506268,-896.000000
748.521160,-859.000000
748.536052,-751.000000
748.550944,-832.000000
748.565836,-854.000000
748.580727,-870.000000
748.595618,-996.000000
748.610509,-821.000000
748.625400,-863.000000
748.640291,-916.000000
748.655181,-862.000000
748.670071,-770.000000
748.684961,-862.000000
748.699851,-908.000000
748.714741,-896.000000
748.729630,-863.000000
748.744519,-769.000000
748.759408,-845.000000
748.774297,-852.000000
748.789186,-850.000000
748.804074,-789.000000
748.818962,-900.000000
748.833850,-872.000000
748.848738,-838.000000
748.863625,-852.000000
748.878512,-851.000000
748.893400,-844.000000
748.908287,-864.000000
748.923173,-853.000000
748.938060,-789.000000
748.952946,-895.000000
748.967832,-878.000000
748.982718,-774.000000
748.997604,-777.000000
749.012489,-848.000000
749.027374,-933.000000
749.042260,-850.000000
749.057144,-823.000000
749.072029,-880.000000
749.086914,-870.000000
749.101798,-848.000000
749.116682,-863.000000
749.131566,-883.000000
749.146449,-810.000000
749.161333,-892.000000
749.176216,-860.000000
749.191099,-870.000000
749.205982,-790.000000
749.220864,-841.000000
749.235747,-765.000000
749.250629,-838.000000
749.265511,-823.000000
749.280393,-742.000000
749.295274,-800.000000
749.310156,-851.000000
749.325037,-855.000000
749.339918,-799.000000
749.354799,-839.000000
749.369679,-855.000000
749.384560,-721.000000
749.399440,-796.000000
749.414320,-861.000000
749.429199,-880.000000
749.444079,-870.000000
749.458958,-819.000000
749.473837,-840.000000
749.488716,-799.000000
749.503595,-733.000000
749.518474,-830.000000
749.533352,-894.000000
749.548230,-812.000000
749.563108,-829.000000
749.577986,-907.000000
749.592863,-898.000000
749.607740,-857.000000
749.622617,-802.000000
749.637494,-867.000000
749.652371,-836.000000
749.667247,-908.000000
749.682124,-803.000000
749.697000,-875.000000
749.711875,-901.000000
749.726751,-892.000000
749.741627,-780.000000
749.756502,-824.000000
749.771377,-828.000000
749.786252,-903.000000
749.801126,-805.000000
749.816001,-748.000000
749.830875,-812.000000
749.845749,-805.000000
749.860623,-792.000000
749.875496,-868.000000
749.890369,-880.000000
749.905243,-828.000000
749.920116,-793.000000
749.934988,-846.000000
749.949861,-882.000000
749.964733,-668.000000
749.979605,-885.000000
749.994477,-854.000000
750.009349,-874.000000
750.024220,-802.000000
750.039092,-867.000000
750.053963,-840.000000
750.068834,-897.000000
750.083704,-842.000000
750.098575,-853.000000
750.113445,-850.000000
750.128315,-748.000000
750.143185,-711.000000
750.158055,-793.000000
750.172924,-809.000000
750.187794,-819.000000
750.202663,-871.000000
750.217531,-817.000000
750.232400,-886.000000
750.247268,-926.000000
750.262137,-907.000000
750.277005,-835.000000
750.291872,-839.000000
750.306740,-858.000000
750.321607,-868.000000
750.336475,-861.000000
750.351342,-872.000000
750.366208,-914.000000
750.381075,-827.000000
750.395941,-849.000000
750.410807,-885.000000
750.425673,-864.000000
750.440539,-826.000000
750.455405,-795.000000
750.470270,-892.000000
750.485135,-893.000000
750.500000,-894.500000
750.514865,-998.000000
750.529729,-922.500000
750.544593,-939.000000
750.559458,-825.000000
750.574321,-822.000000
750.589185,-896.000000
750.604049,-928.000000
750.618912,-767.000000
750.633775,-844.000000
750.648638,-859.000000
750.663500,-987.000000
750.678363,-811.000000
750.693225,-901.000000
750.708087,-791.000000
750.722949,-928.000000
750.737810,-853.000000
750.752672,-826.000000
750.767533,-837.000000
750.782394,-855.000000
750.797255,-884.000000
750.812115,-914.000000
750.826976,-914.000000
750.841836,-921.000000
750.856696,-888.000000
750.871555,-831.000000
750.886415,-799.000000
750.901274,-861.000000
750.916133,-861.000000
750.930992,-773.000000
750.945851,-771.000000
750.960710,-777.000000
750.975568,-894.000000
750.990426,-832.000000
751.005284,-848.000000
751.020141,-832.000000
751.034999,-753.000000
751.049856,-868.000000
751.064713,-898.000000
751.079570,-829.000000
751.094427,-793.000000
751.109283,-864.000000
751.124139,-867.000000
751.138995,-884.000000
751.153851,-776.000000
751.168707,-818.000000
751.183562,-862.000000
751.198417,-880.000000
751.213272,-875.000000
751.228127,-886.000000
751.242981,-905.000000
751.257836,-791.000000
751.272690,-779.000000
751.287544,-843.000000
751.302398,-825.000000
751.317251,-840.000000
751.332104,-878.000000
751.346957,-886.000000
751.361810,-825.000000
751.376663,-913.000000
751.391515,-879.000000
751.406368,-832.000000
751.421220,-928.000000
751.436072,-853.000000
751.450923,-807.000000
751.465775,-838.000000
751.480626,-867.000000
751.495477,-840.000000
751.510328,-845.000000
751.525178,-884.000000
751.540029,-840.000000
751.554879,-798.000000
751.569729,-858.000000
751.584579,-816.000000
751.599428,-855.000000
751.614278,-881.000000
751.629127,-848.000000
751.643976,-825.000000
751.658824,-889.000000
751.673673,-867.000000
751.688521,-790.000000
751.703369,-857.000000
751.718217,-858.000000
751.733065,-855.000000
751.747912,-815.000000
751.762760,-877.000000
751.777607,-865.000000
751.792453,-935.000000
751.807300,-895.000000
751.822146,-873.000000
751.836993,-891.000000
751.851839,-877.000000
751.866685,-814.000000
751.881530,-858.000000
751.896375,-748.000000
751.911221,-789.000000
751.926066,-851.000000
751.940910,-913.000000
751.955755,-862.000000
751.970599,-827.000000
751.985443,-785.000000
752.000287,-793.000000
752.015131,-838.000000
752.029975,-848.000000
752.044818,-792.000000
752.059661,-801.000000
752.074504,-826.000000
752.089347,-804.000000
752.104189,-819.000000
752.119031,-833.000000
752.133873,-756.000000
752.148715,-807.000000
752.163557,-868.000000
752.178398,-929.000000
752.193239,-921.000000
752.208080,-879.000000
752.222921,-862.000000
752.237762,-902.000000
752.252602,-866.000000
752.267442,-799.000000
752.282282,-829.000000
752.297122,-844.000000
752.311962,-872.000000
752.326801,-813.000000
752.341640,-893.000000
752.356479,-830.000000
752.371318,-812.000000
752.386156,-845.000000
752.400994,-703.000000
752.415832,-731.000000
752.430670,-648.000000
752.445508,-657.000000
752.460345,-834.000000
752.475183,-779.000000
752.490020,-768.000000
752.504856,-871.000000
752.519693,-801.000000
752.534529,-847.000000
752.549366,-826.000000
752.564202,-775.000000
752.579037,-848.000000
752.593873,-794.000000
752.608708,-856.000000
752.623543,-813.000000
752.638378,-840.000000
752.653213,-894.000000
752.668048,-777.000000
752.682882,-890.000000
752.697716,-879.000000
752.712550,-892.000000
752.727384,-887.000000
752.742217,-877.000000
752.757050,-868.000000
752.771883,-813.000000
752.786716,-828.000000
752.801549,-833.000000
752.816381,-804.000000
752.831213,-829.000000
752.846045,-837.000000
752.860877,-866.000000
752.875709,-860.000000
752.890540,-867.000000
752.905371,-845.000000
752.920202,-790.000000
752.935033,-839.000000
752.949863,-847.000000
752.964694,-852.000000
752.979524,-846.000000
752.994354,-793.000000
753.009183,-844.000000
753.024013,-791.000000
753.038842,-752.000000
753.053671,-781.000000
753.068500,-889.000000
753.083329,-789.000000
753.098157,-876.000000
753.112985,-893.000000
753.127813,-774.000000
753.142641,-790.000000
753.157469,-824.000000
753.172296,-927.000000
753.187123,-886.000000
753.201950,-780.000000
753.216777,-848.000000
753.231603,-864.000000
753.246430,-754.000000
753.261256,-817.000000
753.276082,-801.000000
753.290907,-887.000000
753.305733,-847.000000
753.320558,-849.000000
753.335383,-813.000000
753.350208,-855.000000
753.365033,-909.000000
753.379857,-842.000000
753.394681,-802.000000
753.409505,-877.000000
753.424329,-782.000000
753.439153,-816.000000
753.453976,-855.000000
753.468799,-829.000000
753.483622,-887.000000
753.498445,-724.000000
753.513267,-929.000000
753.528090,-888.000000
753.542912,-860.000000
753.557734,-871.000000
753.572555,-875.000000
753.587377,-802.000000
753.602198,-901.000000
753.617019,-816.000000
753.631840,-903.000000
753.646661,-842.000000
753.661481,-838.000000
753.676301,-869.000000
753.691121,-894.000000
753.705941,-817.000000
753.720761,-884.000000
753.735580,-827.000000
753.750399,-807.000000
753.765218,-867.000000
753.780037,-827.000000
753.794855,-839.000000
753.809674,-804.000000
753.824492,-809.000000
753.839310,-894.000000
753.854127,-882.000000
753.868945,-819.000000
753.883762,-897.000000
753.898579,-823.000000
753.913396,-815.000000
753.928212,-865.000000
753.943029,-797.000000
753.957845,-827.000000
753.972661,-872.000000
753.987477,-814.000000
754.002292,-827.000000
754.017108,-858.000000
754.031923,-822.000000
754.046738,-856.000000
754.061552,-763.000000
754.076367,-833.000000
754.091181,-767.000000
754.105995,-769.000000
754.120809,-830.000000
754.135623,-855.000000
754.150436,-913.000000
754.165249,-825.000000
754.180062,-881.000000
754.194875,-865.000000
754.209688,-835.000000
754.224500,-784.000000
754.239312,-882.000000
754.254124,-781.000000
754.268936,-793.000000
754.283748,-845.000000
754.298559,-859.000000
754.313370,-824.000000
754.328181,-792.000000
754.342992,-851.000000
754.357802,-865.000000
754.372612,-843.000000
754.387422,-853.000000
754.402232,-847.000000
754.417042,-903.000000
754.431851,-908.000000
754.446660,-796.000000
754.461469,-886.000000
754.476278,-871.000000
754.491087,-760.000000
754.505895,-794.000000
754.520703,-889.000000
754.535511,-832.000000
754.550319,-883.000000
754.565126,-776.000000
754.579934,-895.000000
754.594741,-882.000000
754.609548,-831.000000
754.624354,-849.000000
754.639161,-745.000000
754.653967,-828.000000
754.668773,-796.000000
754.683579,-814.000000
754.698384,-806.000000
754.713190,-554.000000
754.727995,-503.000000
754.742800,-561.000000
754.757605,-666.000000
754.772409,-818.000000
754.787214,-805.000000
754.802018,-842.000000
754.816822,-821.000000
754.831625,-865.000000
754.846429,-853.000000
754.861232,-775.000000
754.876035,-863.000000
754.890838,-883.000000
754.905640,-801.000000
754.920443,-831.000000
754.935245,-870.000000
754.950047,-824.000000
754.964849,-860.000000
754.979650,-768.000000
754.994452,-857.000000
755.009253,-818.000000
755.024054,-922.000000
755.038854,-845.000000
755.053655,-802.000000
755.068455,-873.000000
755.083255,-829.000000
755.098055,-819.000000
755.112855,-809.000000
755.127654,-892.000000
755.142453,-816.000000
755.157252,-817.000000
755.172051,-855.000000
755.186850,-873.000000
755.201648,-824.000000
755.216446,-769.000000
755.231244,-866.000000
755.246042,-841.000000
755.260839,-845.000000
755.275637,-769.000000
755.290434,-866.000000
755.305231,-834.000000
755.320027,-773.000000
755.334824,-847.000000
755.349620,-903.000000
755.364416,-836.000000
755.379212,-847.000000
755.394007,-814.000000
755.408803,-939.000000
755.423598,-841.000000
755.438393,-882.000000
755.453187,-864.000000
755.467982,-757.000000
755.482776,-830.000000
755.497570,-804.000000
755.512364,-865.000000
755.527158,-827.000000
755.541951,-867.000000
755.556745,-776.000000
755.571538,-825.000000
755.586330,-878.000000
755.601123,-924.000000
755.615915,-877.000000
755.630708,-826.000000
755.645500,-843.000000
755.660291,-880.000000
755.675083,-898.000000
755.689874,-842.000000
755.704665,-817.000000
755.719456,-889.000000
755.734247,-841.000000
755.749037,-801.000000
755.763827,-847.000000
755.778618,-825.000000
755.793407,-849.000000
755.808197,-784.000000
755.822986,-835.000000
755.837775,-848.000000
755.852564,-838.000000
755.867353,-855.000000
755.882142,-892.000000
755.896930,-829.000000
755.911718,-841.000000
755.926506,-844.000000
755.941294,-923.000000
755.956081,-825.000000
755.970868,-712.000000
755.985655,-759.000000
756.000442,-841.000000
756.015229,-864.000000
756.030015,-830.000000
756.044801,-845.000000
756.059587,-880.000000
756.074373,-858.000000
756.089159,-861.000000
756.103944,-766.000000
756.118729,-732.000000
756.133514,-787.000000
756.148299,-750.000000
756.163083,-794.000000
756.177867,-896.000000
756.192651,-873.000000
756.207435,-717.000000
756.222219,-784.000000
756.237002,-858.000000
756.251785,-918.000000
756.266568,-815.000000
756.281351,-815.000000
756.296134,-867.000000
756.310916,-789.000000
756.325698,-802.000000
756.340480,-805.000000
756.355262,-855.000000
756.370043,-647.000000
756.384824,-761.000000
756.399605,-811.000000
756.414386,-895.000000
756.429167,-851.000000
756.443947,-811.000000
756.458727,-825.000000
756.473507,-850.000000
756.488287,-870.000000
756.503067,-852.000000
756.517846,-856.000000
756.532625,-874.000000
756.547404,-798.000000
756.562182,-844.000000
756.576961,-903.000000
756.591739,-881.000000
756.606517,-914.000000
756.621295,-833.000000
756.636073,-825.000000
756.650850,-845.000000
756.665627,-779.000000
756.680404,-739.000000
756.695181,-882.000000
756.709957,-824.000000
756.724734,-844.000000
756.739510,-845.000000
756.754286,-823.000000
756.769061,-869.000000
756.783837,-852.000000
756.798612,-820.000000
756.813387,-882.000000
756.828162,-883.000000
756.842936,-774.000000
756.857711,-752.000000
756.872485,-846.000000
756.887259,-825.000000
756.902032,-797.000000
756.916806,-835.000000
756.931579,-782.000000
756.946352,-851.000000
756.961125,-819.000000
756.975898,-819.000000
756.990670,-840.000000
757.005442,-846.000000
757.020214,-586.000000
757.034986,-415.000000
757.049758,-228.000000
757.064529,-289.000000
757.079300,-550.000000
757.094071,-678.000000
757.108842,-804.000000
757.123612,-756.000000
757.138382,-689.000000
757.153153,-821.000000
757.167922,-849.500000
757.182692,-783.500000
757.197461,-864.000000
757.212231,-775.000000
757.227000,-874.000000
757.241768,-882.000000
757.256537,-842.000000
757.271305,-841.000000
757.286073,-823.000000
757.300841,-856.000000
757.315609,-834.000000
757.330376,-822.000000
757.345143,-909.000000
757.359911,-891.000000
757.374677,-813.000000
757.389444,-842.000000
757.404210,-768.000000
757.418976,-800.000000
757.433742,-794.000000
757.448508,-864.000000
757.463274,-860.000000
757.478039,-872.000000
757.492804,-816.000000
757.507569,-820.000000
757.522334,-811.000000
757.537098,-856.000000
757.551862,-841.000000
757.566626,-772.000000
757.581390,-825.000000
757.596154,-858.000000
757.610917,-786.000000
757.625680,-822.000000
757.640443,-894.000000
757.655206,-922.000000
757.669968,-840.000000
757.684730,-873.000000
757.699492,-888.000000
757.714254,-854.000000
757.729016,-913.000000
757.743777,-886.000000
757.758538,-871.000000
757.773299,-827.000000
757.788060,-832.000000
757.802821,-815.000000
757.817581,-840.000000
757.832341,-875.000000
757.847101,-815.000000
757.861861,-827.000000
757.876620,-861.000000
757.891379,-812.000000
757.906138,-843.000000
757.920897,-834.000000
757.935656,-865.000000
757.950414,-905.000000
757.965172,-804.000000
757.979930,-850.000000
757.994688,-808.000000
758.009445,-870.000000
758.024203,-808.000000
758.038960,-805.000000
758.053717,-894.000000
758.068473,-784.000000
758.083230,-795.000000
758.097986,-856.000000
758.112742,-825.000000
758.127498,-803.000000
758.142253,-821.000000
758.157009,-801.000000
758.171764,-855.000000
758.186519,-891.000000
758.201273,-822.000000
758.216028,-820.000000
758.230782,-900.000000
758.245536,-859.000000
758.260290,-799.000000
758.275043,-814.000000
758.289797,-809.000000
758.304550,-815.000000
758.319303,-715.000000
758.334056,-770.000000
758.348808,-815.000000
758.363560,-796.000000
758.378312,-867.000000
758.393064,-793.000000
758.407816,-839.000000
758.422567,-736.000000
758.437319,-785.000000
758.452069,-855.000000
758.466820,-898.000000
758.481571,-837.000000
758.496321,-795.000000
758.511071,-858.000000
758.525821,-799.000000
758.540571,-814.000000
758.555320,-827.000000
758.570070,-860.000000
758.584819,-751.000000
758.599567,-805.000000
758.614316,-823.000000
758.629064,-851.000000
758.643812,-844.000000
758.658560,-832.000000
758.673308,-796.000000
758.688056,-789.000000
758.702803,-883.000000
758.717550,-781.000000
758.732297,-874.000000
758.747043,-753.000000
758.761790,-895.000000
758.776536,-850.000000
758.791282,-826.000000
758.806028,-873.000000
758.820773,-811.000000
758.835519,-885.000000
758.850264,-796.000000
758.865009,-898.000000
758.879753,-891.000000
758.894498,-797.000000
758.909242,-760.000000
758.923986,-792.000000
758.938730,-856.000000
758.953473,-861.000000
758.968217,-819.000000
758.982960,-827.000000
758.997703,-842.000000
759.012445,-850.000000
759.027188,-807.000000
759.041930,-852.000000
759.056672,-876.000000
759.071414,-802.000000
759.086156,-824.000000
759.100897,-843.000000
759.115638,-917.000000
759.130379,-835.000000
759.145120,-846.000000
759.159860,-827.000000
759.174601,-806.000000
759.189341,-870.000000
759.204081,-884.000000
759.218820,-819.000000
759.233560,-817.000000
759.248299,-873.000000
759.263038,-823.000000
759.277777,-856.000000
759.292515,-850.000000
759.307254,-701.000000
759.321992,-688.000000
759.336730,-820.000000
759.351467,-681.000000
759.366205,-124.000000
759.380942,864.000000
759.395679,772.000000
759.410416,27.000000
759.425152,-542.000000
759.439889,-658.000000
759.454625,-913.000000
759.469361,-716.000000
759.484097,-855.000000
759.498832,-804.000000
759.513567,-856.000000
759.528302,-730.000000
759.543037,-818.000000
759.557772,-875.000000
759.572506,-884.000000
759.587240,-817.000000
759.601974,-826.000000
759.616708,-830.000000
759.631442,-800.000000
759.646175,-736.000000
759.660908,-724.000000
759.675641,-820.000000
759.690373,-857.000000
759.705106,-839.000000
759.719838,-713.000000
759.734570,-840.000000
759.749302,-873.000000
759.764033,-849.000000
759.778765,-813.000000
759.793496,-858.000000
759.808227,-875.000000
759.822957,-787.000000
759.837688,-770.000000
759.852418,-790.000000
759.867148,-864.000000
759.881878,-816.000000
759.896607,-819.000000
759.911337,-852.000000
759.926066,-868.000000
759.940795,-823.000000
759.955523,-786.000000
759.970252,-840.000000
759.984980,-841.000000
759.999708,-848.000000
760.014436,-804.000000
760.029164,-811.000000
760.043891,-914.000000
760.058618,-841.000000
760.073345,-828.000000
760.088072,-879.000000
760.102798,-860.000000
760.117525,-860.000000
760.132251,-819.000000
760.146976,-823.000000
760.161702,-878.000000
760.176427,-902.000000
760.191153,-828.000000
760.205878,-860.000000
760.220602,-856.000000
760.235327,-814.000000
760.250051,-786.000000
760.264775,-824.000000
760.279499,-869.000000
760.294223,-859.000000
760.308946,-782.000000
760.323669,-895.000000
760.338392,-818.000000
760.353115,-803.000000
760.367838,-836.000000
760.382560,-852.000000
760.397282,-781.000000
760.412004,-859.000000
760.426726,-749.000000
760.441447,-793.000000
760.456168,-830.000000
760.470889,-900.000000
760.485610,-849.000000
760.500331,-881.000000
760.515051,-840.000000
760.529771,-817.000000
760.544491,-829.000000
760.559211,-847.000000
760.573930,-806.000000
760.588649,-811.000000
760.603368,-852.000000
760.618087,-840.000000
760.632806,-847.000000
760.647524,-859.000000
760.662242,-843.000000
760.676960,-762.000000
760.691678,-888.000000
760.706395,-883.000000
760.721112,-817.000000
760.735829,-879.000000
760.750546,-833.000000
760.765263,-846.000000
760.779979,-847.000000
760.794695,-897.000000
760.809411,-824.000000
760.824127,-764.000000
760.838842,-820.000000
760.853558,-874.000000
760.868273,-840.000000
760.882988,-868.000000
760.897702,-909.000000
760.912417,-962.000000
760.927131,-890.000000
760.941845,-853.000000
760.956558,-827.000000
760.971272,-851.000000
760.985985,-900.000000
761.000698,-821.000000
761.015411,-837.000000
761.030124,-800.000000
761.044836,-867.000000
761.059548,-856.000000
761.074260,-830.000000
761.088972,-960.000000
761.103683,-812.000000
761.118395,-782.000000
761.133106,-786.000000
761.147817,-842.000000
761.162527,-762.000000
761.177238,-795.000000
761.191948,-850.000000
761.206658,-937.000000
761.221367,-917.000000
761.236077,-856.000000
761.250786,-739.000000
761.265495,-815.000000
761.280204,-783.000000
761.294913,-896.000000
761.309621,-837.000000
761.324329,-849.000000
761.339037,-914.000000
761.353745,-804.000000
761.368453,-893.000000
761.383160,-854.000000
761.397867,-766.000000
761.412574,-828.000000
761.427281,-807.000000
761.441987,-816.000000
761.456693,-813.000000
761.471399,-838.000000
761.486105,-836.000000
761.500810,-860.000000
761.515516,-879.000000
761.530221,-857.000000
761.544926,-805.000000
761.559630,-861.000000
761.574335,-842.000000
761.589039,-806.000000
761.603743,-765.000000
761.618447,-779.000000
761.633150,-770.000000
761.647853,-870.000000
761.662557,-867.000000
761.677259,-771.000000
761.691962,-649.000000
761.706665,121.000000
761.721367,1191.000000
761.736069,2027.000000
761.750770,1456.000000
761.765472,-30.000000
761.780173,-595.000000
761.794874,-809.000000
761.809575,-749.000000
761.824276,-838.000000
761.838976,-830.000000
761.853677,-834.000000
761.868377,-839.000000
761.883076,-826.000000
761.897776,-789.000000
761.912475,-843.000000
761.927174,-859.000000
761.941873,-860.000000
761.956572,-893.000000
761.971270,-913.000000
761.985968,-901.000000
762.000666,-863.000000
762.015364,-882.000000
762.030062,-804.000000
762.044759,-760.000000
762.059456,-828.000000
762.074153,-891.000000
762.088850,-843.000000
762.103546,-855.000000
762.118242,-827.000000
762.132938,-765.000000
762.147634,-855.000000
762.162330,-827.000000
762.177025,-843.000000
762.191720,-837.000000
762.206415,-878.000000
762.221109,-845.000000
762.235804,-849.000000
762.250498,-848.000000
762.265192,-862.000000
762.279886,-858.000000
762.294579,-863.000000
762.309273,-915.000000
762.323966,-897.000000
