#{"CCD_temperature": "-88", "FELP": "1", "FELRR": "0.75", "FEL_lambda": "10", "FEL_pulses": 16, "NIRP": "137.505", "NIR_lambda": "764", "Sample_Temp": "17", "addenda": [-16598.725, "FEL_power_sweep"], "bg_file_name": "testBG19", "center_lambda": 751.5, "dark_region": null, "exposure": 20.0, "gain": 125, "grating": 2, "series": "137.505", "shot_normalized": true, "slits": "40", "subtrahenda": ["testBG"], "y_max": 80, "y_min": 25}
#

Wavelength,Signal
nm,arb. u.
nan,nan
nan,nan
1.676447,4.953516
1.676413,2.828516
1.676379,4.641016
1.676345,0.703516
1.676311,-0.546484
1.676277,-0.796484
1.676243,1.391016
1.676209,4.266016
1.676175,1.766016
1.676141,2.078516
1.676107,0.391016
1.676073,-1.108984
1.676039,3.891016
1.676005,-0.733984
1.675971,-1.483984
1.675937,1.078516
1.675903,4.141016
1.675869,0.516016
1.675835,1.641016
1.675801,-2.421484
1.675767,1.141016
1.675733,-0.546484
1.675699,0.328516
1.675665,2.891016
1.675631,0.703516
1.675597,0.578516
1.675563,-2.983984
1.675529,-2.733984
1.675495,2.203516
1.675461,1.328516
1.675427,1.516016
1.675393,3.516016
1.675359,0.516016
1.675325,0.703516
1.675291,4.766016
1.675257,0.328516
1.675223,1.016016
1.675189,0.516016
1.675155,2.078516
1.675121,1.203516
1.675087,0.141016
1.675053,3.203516
1.675019,3.266016
1.674985,6.266016
1.674951,2.766016
1.674917,3.641016
1.674883,-0.108984
1.674849,4.641016
1.674815,3.203516
1.674781,-0.046484
1.674747,0.141016
1.674714,1.766016
1.674680,-0.608984
1.674646,2.203516
1.674612,-0.108984
1.674578,0.016016
1.674544,-1.046484
1.674510,0.078516
1.674476,-1.671484
1.674442,-0.171484
1.674408,4.766016
1.674374,0.391016
1.674340,-0.421484
1.674306,1.828516
1.674272,2.391016
1.674238,3.641016
1.674205,1.766016
1.674171,2.766016
1.674137,-1.233984
1.674103,0.328516
1.674069,-2.296484
1.674035,4.391016
1.674001,4.766016
1.673967,-1.233984
1.673933,0.016016
1.673899,4.078516
1.673865,-0.671484
1.673831,0.453516
1.673798,-0.233984
1.673764,-4.233984
1.673730,0.766016
1.673696,1.828516
1.673662,1.328516
1.673628,0.016016
1.673594,1.516016
1.673560,2.891016
1.673526,5.391016
1.673493,-3.546484
1.673459,1.641016
1.673425,0.078516
1.673391,2.141016
1.673357,3.016016
1.673323,1.641016
1.673289,1.078516
1.673255,0.203516
1.673222,0.078516
1.673188,1.516016
1.673154,3.828516
1.673120,-0.671484
1.673086,2.516016
1.673052,1.328516
1.673018,1.078516
1.672985,-0.671484
1.672951,1.453516
1.672917,1.141016
1.672883,4.141016
1.672849,-1.233984
1.672815,0.141016
1.672781,2.328516
1.672748,2.016016
1.672714,4.453516
1.672680,2.703516
1.672646,-0.108984
1.672612,-2.233984
1.672578,-0.358984
1.672545,1.328516
1.672511,-0.483984
1.672477,0.891016
1.672443,-0.671484
1.672409,-0.171484
1.672375,3.453516
1.672342,5.828516
1.672308,2.953516
1.672274,-0.796484
1.672240,-0.046484
1.672206,2.516016
1.672172,1.016016
1.672139,1.891016
1.672105,1.766016
1.672071,3.891016
1.672037,1.266016
1.672003,0.141016
1.671970,0.766016
1.671936,3.891016
1.671902,2.328516
1.671868,2.266016
1.671834,-0.421484
1.671801,0.266016
1.671767,-0.796484
1.671733,-0.233984
1.671699,-1.608984
1.671666,2.328516
1.671632,2.641016
1.671598,0.516016
1.671564,-0.858984
1.671530,1.391016
1.671497,-0.608984
1.671463,1.953516
1.671429,-0.796484
1.671395,-0.358984
1.671362,0.266016
1.671328,3.328516
1.671294,2.078516
1.671260,4.641016
1.671226,2.016016
1.671193,3.078516
1.671159,-0.171484
1.671125,0.203516
1.671091,-0.046484
1.671058,4.203516
1.671024,-1.858984
1.670990,-0.421484
1.670956,3.328516
1.670923,1.266016
1.670889,2.453516
1.670855,1.766016
1.670821,2.328516
1.670788,-0.983984
1.670754,1.766016
1.670720,-2.296484
1.670686,-0.171484
1.670653,-1.108984
1.670619,3.641016
1.670585,1.953516
1.670552,0.953516
1.670518,4.141016
1.670484,-0.358984
1.670450,1.891016
1.670417,1.578516
1.670383,0.141016
1.670349,0.141016
1.670316,5.391016
1.670282,0.891016
1.670248,4.328516
1.670214,1.766016
1.670181,-0.108984
1.670147,4.516016
1.670113,0.641016
1.670080,1.266016
1.670046,-2.108984
1.670012,1.891016
1.669978,-1.233984
1.669945,2.391016
1.669911,1.203516
1.669877,3.078516
1.669844,1.141016
1.669810,4.703516
1.669776,1.453516
1.669743,1.078516
1.669709,0.266016
1.669675,0.828516
1.669642,0.328516
1.669608,-1.483984
1.669574,4.391016
1.669541,5.016016
1.669507,0.641016
1.669473,2.078516
1.669440,0.828516
1.669406,1.453516
1.669372,0.391016
1.669339,2.641016
1.669305,2.141016
1.669271,0.016016
1.669238,0.203516
1.669204,1.891016
1.669170,-1.671484
1.669137,2.453516
1.669103,0.516016
1.669069,1.828516
1.669036,3.516016
1.669002,0.953516
1.668968,2.828516
1.668935,1.891016
1.668901,1.578516
1.668867,-2.233984
1.668834,4.203516
1.668800,-0.483984
1.668767,0.578516
1.668733,1.391016
1.668699,-0.358984
1.668666,2.766016
1.668632,1.641016
1.668598,2.578516
1.668565,0.391016
1.668531,2.703516
1.668498,2.203516
1.668464,-0.858984
1.668430,2.141016
1.668397,5.766016
1.668363,1.516016
1.668330,1.953516
1.668296,3.641016
1.668262,2.953516
1.668229,2.766016
1.668195,3.578516
1.668162,2.391016
1.668128,2.641016
1.668094,-0.671484
1.668061,3.141016
1.668027,0.203516
1.667994,1.078516
1.667960,0.328516
1.667926,2.078516
1.667893,4.078516
1.667859,5.141016
1.667826,0.766016
1.667792,-1.046484
1.667758,0.766016
1.667725,0.578516
1.667691,5.703516
1.667658,4.578516
1.667624,-0.358984
1.667591,2.953516
1.667557,3.891016
1.667523,0.703516
1.667490,-0.358984
1.667456,-0.046484
1.667423,-0.358984
1.667389,0.516016
1.667356,-0.296484
1.667322,3.391016
1.667289,3.953516
1.667255,3.266016
1.667221,0.891016
1.667188,5.766016
1.667154,-1.546484
1.667121,1.266016
1.667087,1.078516
1.667054,1.203516
1.667020,3.453516
1.666987,3.078516
1.666953,3.391016
1.666920,-2.421484
1.666886,3.203516
1.666853,2.203516
1.666819,1.016016
1.666785,0.766016
1.666752,4.453516
1.666718,0.828516
1.666685,0.516016
1.666651,1.266016
1.666618,2.453516
1.666584,4.828516
1.666551,1.516016
1.666517,2.766016
1.666484,0.516016
1.666450,0.891016
1.666417,0.828516
1.666383,0.516016
1.666350,2.766016
1.666316,1.453516
1.666283,2.828516
1.666249,5.891016
1.666216,2.266016
1.666182,0.641016
1.666149,-0.296484
1.666115,0.891016
1.666082,0.328516
1.666048,7.203516
1.666015,-0.421484
1.665981,1.328516
1.665948,2.766016
1.665914,2.766016
1.665881,4.953516
1.665847,2.266016
1.665814,-0.171484
1.665781,2.141016
1.665747,2.891016
1.665714,-0.483984
1.665680,2.953516
1.665647,3.391016
1.665613,6.016016
1.665580,0.516016
1.665546,-1.171484
1.665513,5.141016
1.665479,3.516016
1.665446,2.016016
1.665412,4.203516
1.665379,2.453516
1.665346,0.641016
1.665312,0.891016
1.665279,-0.171484
1.665245,0.266016
1.665212,0.578516
1.665178,3.703516
1.665145,0.391016
1.665111,2.453516
1.665078,3.578516
1.665045,-0.858984
1.665011,6.391016
1.664978,4.016016
1.664944,2.703516
1.664911,0.641016
1.664877,6.953516
1.664844,2.141016
1.664811,3.141016
1.664777,4.453516
1.664744,2.391016
1.664710,0.828516
1.664677,1.016016
1.664644,7.078516
1.664610,0.953516
1.664577,-1.108984
1.664543,0.641016
1.664510,-0.733984
1.664476,3.641016
1.664443,-0.608984
1.664410,4.016016
1.664376,-0.983984
1.664343,1.766016
1.664309,1.141016
1.664276,-0.608984
1.664243,2.266016
1.664209,2.641016
1.664176,0.953516
1.664143,1.203516
1.664109,3.328516
1.664076,1.828516
1.664042,1.516016
1.664009,1.391016
1.663976,4.391016
1.663942,4.078516
1.663909,2.516016
1.663876,1.266016
1.663842,3.078516
1.663809,0.891016
1.663775,-0.483984
1.663742,5.453516
1.663709,3.203516
1.663675,3.141016
1.663642,1.203516
1.663609,0.578516
1.663575,0.453516
1.663542,1.828516
1.663509,0.766016
1.663475,3.078516
1.663442,1.391016
1.663409,3.078516
1.663375,0.266016
1.663342,1.953516
1.663308,1.391016
1.663275,3.141016
1.663242,5.203516
1.663208,3.266016
1.663175,2.328516
1.663142,6.266016
1.663108,1.016016
1.663075,2.016016
1.663042,2.266016
1.663009,2.391016
1.662975,0.953516
1.662942,2.391016
1.662909,4.391016
1.662875,5.078516
1.662842,-1.483984
1.662809,3.766016
1.662775,-2.421484
1.662742,4.703516
1.662709,2.703516
1.662675,3.391016
1.662642,4.453516
1.662609,2.203516
1.662575,1.953516
1.662542,3.328516
1.662509,5.641016
1.662476,2.078516
1.662442,1.328516
1.662409,-0.296484
1.662376,2.016016
1.662342,0.828516
1.662309,4.953516
1.662276,-0.296484
1.662243,2.266016
1.662209,1.266016
1.662176,-3.046484
1.662143,2.828516
1.662109,1.703516
1.662076,1.203516
1.662043,3.266016
1.662010,4.828516
1.661976,2.953516
1.661943,3.078516
1.661910,1.953516
1.661877,3.953516
1.661843,1.141016
1.661810,3.141016
1.661777,0.016016
1.661743,2.016016
1.661710,6.016016
1.661677,1.703516
1.661644,2.766016
1.661610,1.828516
1.661577,1.516016
1.661544,1.266016
1.661511,3.078516
1.661477,1.703516
1.661444,-1.421484
1.661411,1.891016
1.661378,3.328516
1.661345,3.016016
1.661311,-0.233984
1.661278,3.516016
1.661245,3.141016
1.661212,3.016016
1.661178,2.016016
1.661145,0.453516
1.661112,3.141016
1.661079,4.578516
1.661045,1.891016
1.661012,1.578516
1.660979,4.016016
1.660946,4.953516
1.660913,5.641016
1.660879,-0.796484
1.660846,4.578516
1.660813,1.453516
1.660780,4.766016
1.660747,2.953516
1.660713,3.203516
1.660680,-0.483984
1.660647,3.766016
1.660614,2.016016
1.660581,6.078516
1.660547,2.578516
1.660514,1.141016
1.660481,4.016016
1.660448,2.891016
1.660415,2.453516
1.660381,4.203516
1.660348,3.266016
1.660315,2.641016
1.660282,5.328516
1.660249,5.203516
1.660216,4.703516
1.660182,4.203516
1.660149,3.891016
1.660116,4.391016
1.660083,4.203516
1.660050,4.703516
1.660017,1.141016
1.659983,4.016016
1.659950,4.203516
1.659917,4.266016
1.659884,1.766016
1.659851,4.328516
1.659818,4.453516
1.659784,4.828516
1.659751,3.141016
1.659718,6.078516
1.659685,0.828516
1.659652,5.703516
1.659619,2.891016
1.659586,3.078516
1.659552,4.141016
1.659519,0.578516
1.659486,3.203516
1.659453,3.266016
1.659420,4.203516
1.659387,6.078516
1.659354,3.516016
1.659321,1.391016
1.659287,9.828516
1.659254,1.766016
1.659221,1.953516
1.659188,5.141016
1.659155,5.828516
1.659122,3.578516
1.659089,1.516016
1.659056,2.641016
1.659022,1.203516
1.658989,3.641016
1.658956,3.766016
1.658923,3.141016
1.658890,4.641016
1.658857,4.078516
1.658824,2.516016
1.658791,1.953516
1.658758,6.828516
1.658725,1.953516
1.658691,4.766016
1.658658,5.828516
1.658625,1.578516
1.658592,5.578516
1.658559,3.328516
1.658526,6.641016
1.658493,2.953516
1.658460,2.953516
1.658427,6.828516
1.658394,5.016016
1.658361,0.328516
1.658327,2.703516
1.658294,2.703516
1.658261,3.078516
1.658228,1.516016
1.658195,0.141016
1.658162,0.641016
1.658129,3.578516
1.658096,3.766016
1.658063,3.641016
1.658030,0.891016
1.657997,3.328516
1.657964,5.641016
1.657931,1.516016
1.657898,1.953516
1.657865,5.203516
1.657832,3.516016
1.657799,4.641016
1.657765,3.078516
1.657732,3.016016
1.657699,1.641016
1.657666,2.391016
1.657633,4.953516
1.657600,6.766016
1.657567,3.516016
1.657534,4.266016
1.657501,1.578516
1.657468,0.891016
1.657435,9.266016
1.657402,4.641016
1.657369,5.578516
1.657336,3.766016
1.657303,1.141016
1.657270,5.328516
1.657237,2.578516
1.657204,3.703516
1.657171,4.891016
1.657138,3.266016
1.657105,5.641016
1.657072,3.641016
1.657039,2.016016
1.657006,2.078516
1.656973,0.391016
1.656940,3.453516
1.656907,6.641016
1.656874,3.641016
1.656841,5.891016
1.656808,5.078516
1.656775,0.766016
1.656742,4.141016
1.656709,3.828516
1.656676,2.953516
1.656643,3.328516
1.656610,6.703516
1.656577,6.516016
1.656544,4.828516
1.656511,4.641016
1.656478,2.516016
1.656445,4.078516
1.656412,5.641016
1.656379,5.891016
1.656346,8.766016
1.656313,5.391016
1.656280,5.891016
1.656247,3.328516
1.656214,3.516016
1.656181,2.828516
1.656148,4.141016
1.656116,7.141016
1.656083,6.016016
1.656050,1.203516
1.656017,5.141016
1.655984,9.328516
1.655951,12.266016
1.655918,3.391016
1.655885,5.703516
1.655852,6.953516
1.655819,6.516016
1.655786,1.641016
1.655753,4.953516
1.655720,3.703516
1.655687,4.016016
1.655654,4.203516
1.655621,4.578516
1.655588,6.453516
1.655556,4.328516
1.655523,6.641016
1.655490,8.203516
1.655457,6.953516
1.655424,4.953516
1.655391,4.828516
1.655358,4.453516
1.655325,5.078516
1.655292,4.078516
1.655259,3.828516
1.655226,7.578516
1.655193,4.578516
1.655161,5.016016
1.655128,4.203516
1.655095,6.953516
1.655062,4.016016
1.655029,3.203516
1.654996,4.016016
1.654963,5.516016
1.654930,2.266016
1.654897,5.828516
1.654864,5.891016
1.654832,5.766016
1.654799,4.016016
1.654766,5.516016
1.654733,2.703516
1.654700,4.953516
1.654667,5.766016
1.654634,3.266016
1.654601,6.016016
1.654569,5.453516
1.654536,4.828516
1.654503,7.266016
1.654470,6.516016
1.654437,7.391016
1.654404,4.828516
1.654371,3.891016
1.654338,1.641016
1.654306,5.078516
1.654273,5.391016
1.654240,7.953516
1.654207,5.766016
1.654174,5.516016
1.654141,7.703516
1.654108,5.641016
1.654076,2.516016
1.654043,4.141016
1.654010,7.266016
1.653977,3.266016
1.653944,6.141016
1.653911,8.141016
1.653879,0.016016
1.653846,4.516016
1.653813,4.641016
1.653780,5.078516
1.653747,5.703516
1.653714,9.141016
1.653682,4.578516
1.653649,3.828516
1.653616,4.578516
1.653583,3.266016
1.653550,6.641016
1.653517,6.891016
1.653485,5.266016
1.653452,5.203516
1.653419,4.016016
1.653386,8.516016
1.653353,8.016016
1.653321,4.766016
1.653288,6.953516
1.653255,5.516016
1.653222,4.453516
1.653189,2.203516
1.653157,7.516016
1.653124,5.016016
1.653091,9.953516
1.653058,1.516016
1.653025,3.266016
1.652993,5.266016
1.652960,1.828516
1.652927,8.453516
1.652894,8.203516
1.652862,2.578516
1.652829,3.391016
1.652796,3.953516
1.652763,9.578516
1.652730,6.328516
1.652698,4.078516
1.652665,6.828516
1.652632,5.953516
1.652599,5.453516
1.652567,2.828516
1.652534,7.578516
1.652501,5.516016
1.652468,7.766016
1.652435,7.391016
1.652403,5.078516
1.652370,6.266016
1.652337,17.391016
1.652304,1.453516
1.652272,7.953516
1.652239,-7.296484
1.652206,1.328516
1.652173,5.078516
1.652141,4.203516
1.652108,8.266016
1.652075,5.016016
1.652043,8.516016
1.652010,12.078516
1.651977,7.578516
1.651944,11.203516
1.651912,6.203516
1.651879,9.828516
1.651846,4.391016
1.651813,11.141016
1.651781,0.766016
1.651748,5.828516
1.651715,6.578516
1.651682,5.766016
1.651650,5.016016
1.651617,7.828516
1.651584,3.516016
1.651552,7.891016
1.651519,8.266016
1.651486,7.141016
1.651454,10.016016
1.651421,10.641016
1.651388,7.391016
1.651355,10.391016
1.651323,5.266016
1.651290,2.828516
1.651257,6.141016
1.651225,6.141016
1.651192,8.453516
1.651159,6.266016
1.651127,7.453516
1.651094,9.078516
1.651061,6.453516
1.651028,8.891016
1.650996,5.016016
1.650963,9.641016
1.650930,13.703516
1.650898,7.578516
1.650865,8.828516
1.650832,6.641016
1.650800,15.266016
1.650767,5.391016
1.650734,4.828516
1.650702,8.641016
1.650669,12.578516
1.650636,6.703516
1.650604,4.641016
1.650571,3.016016
1.650538,5.891016
1.650506,6.703516
1.650473,3.328516
1.650440,11.016016
1.650408,10.328516
1.650375,11.453516
1.650342,8.141016
1.650310,10.828516
1.650277,3.641016
1.650245,6.703516
1.650212,9.703516
1.650179,7.953516
1.650147,3.016016
1.650114,2.391016
1.650081,10.641016
1.650049,4.766016
1.650016,10.141016
1.649983,8.016016
1.649951,27.516016
1.649918,6.453516
1.649886,-4.108984
1.649853,8.078516
1.649820,4.453516
1.649788,7.078516
1.649755,7.641016
1.649723,12.453516
1.649690,8.453516
1.649657,17.641016
1.649625,8.203516
1.649592,13.266016
1.649559,7.141016
1.649527,7.016016
1.649494,6.203516
1.649462,8.703516
1.649429,5.703516
1.649396,8.141016
1.649364,4.891016
1.649331,8.953516
1.649299,8.203516
1.649266,4.953516
1.649233,7.516016
1.649201,7.641016
1.649168,7.641016
1.649136,11.641016
1.649103,7.703516
1.649071,9.516016
1.649038,12.516016
1.649005,4.641016
1.648973,6.078516
1.648940,10.703516
1.648908,11.141016
1.648875,0.016016
1.648843,11.453516
1.648810,9.828516
1.648777,11.516016
1.648745,8.141016
1.648712,10.703516
1.648680,12.141016
1.648647,9.891016
1.648615,11.516016
1.648582,7.266016
1.648550,11.516016
1.648517,11.328516
1.648484,11.641016
1.648452,12.391016
1.648419,14.328516
1.648387,7.078516
1.648354,16.328516
1.648322,7.641016
1.648289,10.516016
1.648257,12.578516
1.648224,13.641016
1.648192,9.078516
1.648159,15.328516
1.648127,8.391016
1.648094,7.953516
1.648061,11.016016
1.648029,14.891016
1.647996,10.141016
1.647964,14.516016
1.647931,13.453516
1.647899,14.891016
1.647866,9.578516
1.647834,13.828516
1.647801,13.516016
1.647769,6.078516
1.647736,9.703516
1.647704,10.703516
1.647671,13.453516
1.647639,14.766016
1.647606,13.328516
1.647574,11.078516
1.647541,11.141016
1.647509,12.953516
1.647476,12.203516
1.647444,13.391016
1.647411,13.266016
1.647379,10.516016
1.647346,12.828516
1.647314,4.828516
1.647281,12.141016
1.647249,10.516016
1.647216,10.078516
1.647184,9.953516
1.647151,10.016016
1.647119,15.203516
1.647086,11.453516
1.647054,16.953516
1.647022,11.641016
1.646989,15.141016
1.646957,8.953516
1.646924,15.516016
1.646892,9.016016
1.646859,9.391016
1.646827,15.266016
1.646794,21.266016
1.646762,11.141016
1.646729,11.766016
1.646697,12.453516
1.646664,13.891016
1.646632,14.016016
1.646600,20.391016
1.646567,11.328516
1.646535,10.953516
1.646502,13.391016
1.646470,12.266016
1.646437,13.203516
1.646405,16.516016
1.646373,14.703516
1.646340,14.953516
1.646308,15.578516
1.646275,15.516016
1.646243,20.516016
1.646210,15.203516
1.646178,21.891016
1.646146,13.078516
1.646113,13.703516
1.646081,26.078516
1.646048,14.703516
1.646016,19.078516
1.645983,16.266016
1.645951,14.766016
1.645919,14.328516
1.645886,12.516016
1.645854,10.891016
1.645821,19.891016
1.645789,11.328516
1.645757,10.828516
1.645724,14.266016
1.645692,16.641016
1.645659,22.266016
1.645627,16.703516
1.645595,15.453516
1.645562,14.641016
1.645530,13.766016
1.645497,13.016016
1.645465,10.828516
1.645433,13.203516
1.645400,17.328516
1.645368,17.703516
1.645335,18.828516
1.645303,16.266016
1.645271,11.266016
1.645238,16.391016
1.645206,16.891016
1.645174,16.703516
1.645141,19.141016
1.645109,14.703516
1.645076,17.891016
1.645044,23.703516
1.645012,20.078516
1.644979,16.516016
1.644947,16.766016
1.644915,18.141016
1.644882,22.266016
1.644850,19.016016
1.644818,12.141016
1.644785,15.078516
1.644753,18.766016
1.644721,13.828516
1.644688,20.016016
1.644656,23.141016
1.644624,18.078516
1.644591,14.766016
1.644559,23.391016
1.644527,14.516016
1.644494,18.828516
1.644462,15.078516
1.644430,19.703516
1.644397,12.328516
1.644365,17.953516
1.644333,14.078516
1.644300,14.328516
1.644268,16.453516
1.644236,18.078516
1.644203,18.703516
1.644171,19.141016
1.644139,20.578516
1.644106,16.141016
1.644074,20.828516
1.644042,12.766016
1.644009,25.016016
1.643977,18.828516
1.643945,12.953516
1.643912,20.828516
1.643880,15.891016
1.643848,14.203516
1.643816,15.641016
1.643783,21.578516
1.643751,17.266016
1.643719,16.578516
1.643686,17.828516
1.643654,23.766016
1.643622,15.141016
1.643590,14.953516
1.643557,15.953516
1.643525,17.891016
1.643493,16.266016
1.643460,26.703516
1.643428,14.141016
1.643396,15.016016
1.643364,14.141016
1.643331,12.891016
1.643299,16.703516
1.643267,17.703516
1.643234,10.266016
1.643202,21.203516
1.643170,20.266016
1.643138,22.641016
1.643105,21.641016
1.643073,22.016016
1.643041,16.953516
1.643009,20.828516
1.642976,17.141016
1.642944,23.641016
1.642912,16.141016
1.642880,31.453516
1.642847,26.391016
1.642815,23.266016
1.642783,23.078516
1.642751,26.641016
1.642718,18.328516
1.642686,16.766016
1.642654,11.453516
1.642622,19.141016
1.642589,22.391016
1.642557,18.703516
1.642525,21.828516
1.642493,14.016016
1.642461,21.453516
1.642428,20.203516
1.642396,24.891016
1.642364,17.953516
1.642332,18.078516
1.642299,25.828516
1.642267,25.328516
1.642235,26.703516
1.642203,21.078516
1.642171,28.828516
1.642138,23.516016
1.642106,22.328516
1.642074,21.891016
1.642042,22.828516
1.642010,19.828516
1.641977,19.141016
1.641945,20.578516
1.641913,22.391016
1.641881,21.578516
1.641849,19.078516
1.641816,20.641016
1.641784,27.078516
1.641752,19.953516
1.641720,24.203516
1.641688,23.703516
1.641655,20.641016
1.641623,30.453516
1.641591,22.641016
1.641559,26.266016
1.641527,21.391016
1.641495,28.266016
1.641462,25.203516
1.641430,22.766016
1.641398,21.328516
1.641366,16.703516
1.641334,15.578516
1.641302,16.328516
1.641269,22.516016
1.641237,22.953516
1.641205,24.578516
1.641173,26.016016
1.641141,19.078516
1.641109,19.953516
1.641076,25.328516
1.641044,25.391016
1.641012,26.516016
1.640980,24.203516
1.640948,19.453516
1.640916,25.766016
1.640884,21.766016
1.640851,27.391016
1.640819,23.516016
1.640787,26.516016
1.640755,27.703516
1.640723,17.828516
1.640691,26.141016
1.640659,24.578516
1.640627,26.016016
1.640594,18.703516
1.640562,19.391016
1.640530,15.641016
1.640498,16.703516
1.640466,19.141016
1.640434,22.516016
1.640402,21.141016
1.640370,19.266016
1.640337,23.203516
1.640305,22.328516
1.640273,20.516016
1.640241,24.953516
1.640209,25.953516
1.640177,29.266016
1.640145,29.391016
1.640113,28.828516
1.640081,24.016016
1.640048,29.266016
1.640016,22.641016
1.639984,16.078516
1.639952,23.078516
1.639920,25.328516
1.639888,20.641016
1.639856,28.453516
1.639824,18.891016
1.639792,19.766016
1.639760,24.078516
1.639728,30.891016
1.639696,25.953516
1.639663,29.578516
1.639631,30.453516
1.639599,29.141016
1.639567,33.203516
1.639535,34.766016
1.639503,24.266016
1.639471,25.328516
1.639439,31.703516
1.639407,33.016016
1.639375,29.641016
1.639343,31.641016
1.639311,31.891016
1.639279,34.516016
1.639247,22.641016
1.639215,24.891016
1.639183,29.203516
1.639150,34.703516
1.639118,32.141016
1.639086,38.328516
1.639054,34.766016
1.639022,31.953516
1.638990,22.953516
1.638958,36.328516
1.638926,32.578516
1.638894,40.578516
1.638862,27.016016
1.638830,39.266016
1.638798,28.328516
1.638766,32.203516
1.638734,35.828516
1.638702,34.078516
1.638670,23.578516
1.638638,23.766016
1.638606,30.078516
1.638574,23.141016
1.638542,34.891016
1.638510,37.203516
1.638478,35.953516
1.638446,39.953516
1.638414,26.016016
1.638382,29.141016
1.638350,33.266016
1.638318,34.578516
1.638286,31.828516
1.638254,36.453516
1.638222,45.828516
1.638190,35.516016
1.638158,40.516016
1.638126,38.391016
1.638094,29.891016
1.638062,33.828516
1.638030,26.828516
1.637998,29.703516
1.637966,20.891016
1.637934,30.141016
1.637902,22.641016
1.637870,18.266016
1.637838,25.641016
1.637806,33.453516
1.637774,22.328516
1.637742,24.141016
1.637710,41.453516
1.637678,57.141016
1.637646,45.703516
1.637614,39.578516
1.637582,35.391016
1.637550,40.953516
1.637518,40.578516
1.637486,37.516016
1.637454,29.203516
1.637422,26.453516
1.637390,38.828516
1.637358,27.578516
1.637327,31.641016
1.637295,31.641016
1.637263,21.266016
1.637231,28.828516
1.637199,28.891016
1.637167,22.766016
1.637135,29.078516
1.637103,24.641016
1.637071,36.078516
1.637039,32.453516
1.637007,36.453516
1.636975,27.578516
1.636943,39.078516
1.636911,33.328516
1.636879,39.953516
1.636847,38.328516
1.636816,33.203516
1.636784,32.328516
1.636752,40.953516
1.636720,28.141016
1.636688,29.766016
1.636656,35.203516
1.636624,33.391016
1.636592,35.578516
1.636560,39.578516
1.636528,37.453516
1.636496,34.266016
1.636464,28.203516
1.636433,27.016016
1.636401,33.766016
1.636369,31.016016
1.636337,32.453516
1.636305,38.641016
1.636273,39.766016
1.636241,42.953516
1.636209,33.391016
1.636177,45.516016
1.636146,37.203516
1.636114,49.203516
1.636082,41.328516
1.636050,49.266016
1.636018,41.141016
1.635986,39.016016
1.635954,43.703516
1.635922,46.078516
1.635890,34.078516
1.635859,30.078516
1.635827,37.703516
1.635795,35.953516
1.635763,42.078516
1.635731,39.703516
1.635699,39.391016
1.635667,38.703516
1.635636,44.891016
1.635604,41.516016
1.635572,47.141016
1.635540,32.641016
1.635508,55.641016
1.635476,55.016016
1.635444,38.016016
1.635413,48.078516
1.635381,46.703516
1.635349,55.328516
1.635317,40.828516
1.635285,55.828516
1.635253,61.391016
1.635221,91.891016
1.635190,105.578516
1.635158,86.953516
1.635126,90.578516
1.635094,52.891016
1.635062,52.203516
1.635030,53.016016
1.634999,53.328516
1.634967,45.516016
1.634935,50.016016
1.634903,57.953516
1.634871,60.828516
1.634840,63.703516
1.634808,53.141016
1.634776,57.766016
1.634744,60.703516
1.634712,53.766016
1.634680,52.766016
1.634649,49.078516
1.634617,50.391016
1.634585,62.391016
1.634553,44.078516
1.634521,47.453516
1.634490,52.516016
1.634458,53.766016
1.634426,61.828516
1.634394,54.766016
1.634362,54.391016
1.634331,59.453516
1.634299,63.453516
1.634267,65.828516
1.634235,51.703516
1.634204,63.391016
1.634172,58.266016
1.634140,65.391016
1.634108,58.203516
1.634076,61.828516
1.634045,74.641016
1.634013,60.328516
1.633981,65.266016
1.633949,69.016016
1.633918,47.766016
1.633886,72.391016
1.633854,47.516016
1.633822,50.016016
1.633791,56.828516
1.633759,58.953516
1.633727,50.328516
1.633695,50.641016
1.633663,72.328516
1.633632,46.953516
1.633600,48.891016
1.633568,59.203516
1.633536,66.078516
1.633505,71.203516
1.633473,62.578516
1.633441,57.203516
1.633409,69.203516
1.633378,73.578516
1.633346,59.453516
1.633314,62.391016
1.633283,65.453516
1.633251,80.578516
1.633219,57.016016
1.633187,61.016016
1.633156,48.953516
1.633124,64.953516
1.633092,71.953516
1.633060,60.516016
1.633029,61.953516
1.632997,66.703516
1.632965,71.703516
1.632934,55.953516
1.632902,62.766016
1.632870,58.766016
1.632838,64.703516
1.632807,65.328516
1.632775,86.641016
1.632743,138.266016
1.632712,241.703516
1.632680,226.766016
1.632648,146.266016
1.632617,83.391016
1.632585,65.828516
1.632553,64.891016
1.632521,63.641016
1.632490,69.578516
1.632458,74.578516
1.632426,82.203516
1.632395,64.203516
1.632363,66.641016
1.632331,67.453516
1.632300,72.641016
1.632268,57.453516
1.632236,80.078516
1.632205,70.203516
1.632173,72.766016
1.632141,77.078516
1.632110,87.016016
1.632078,76.703516
1.632046,78.203516
1.632015,72.328516
1.631983,73.266016
1.631951,88.234766
1.631920,84.266016
1.631888,75.391016
1.631856,82.391016
1.631825,82.016016
1.631793,79.453516
1.631761,87.578516
1.631730,85.391016
1.631698,89.516016
1.631666,88.328516
1.631635,81.516016
1.631603,88.703516
1.631571,92.391016
1.631540,96.578516
1.631508,107.016016
1.631476,95.516016
1.631445,99.203516
1.631413,93.516016
1.631382,107.266016
1.631350,115.641016
1.631318,100.578516
1.631287,97.766016
1.631255,100.828516
1.631223,104.828516
1.631192,98.016016
1.631160,90.516016
1.631129,115.203516
1.631097,88.641016
1.631065,86.328516
1.631034,88.766016
1.631002,94.391016
1.630970,99.641016
1.630939,122.828516
1.630907,104.078516
1.630876,121.016016
1.630844,115.766016
1.630812,117.766016
1.630781,112.641016
1.630749,113.016016
1.630718,115.516016
1.630686,108.016016
1.630654,116.766016
1.630623,125.141016
1.630591,119.453516
1.630560,140.078516
1.630528,99.828516
1.630497,124.328516
1.630465,94.578516
1.630433,103.766016
1.630402,104.141016
1.630370,117.641016
1.630339,126.766016
1.630307,133.141016
1.630275,217.891016
1.630244,624.391016
1.630212,885.891016
1.630181,644.141016
1.630149,258.516016
1.630118,135.078516
1.630086,127.391016
1.630055,111.141016
1.630023,124.641016
1.629991,133.328516
1.629960,115.703516
1.629928,125.953516
1.629897,103.578516
1.629865,123.953516
1.629834,118.391016
1.629802,121.828516
1.629771,135.891016
1.629739,120.453516
1.629707,130.266016
1.629676,118.828516
1.629644,118.328516
1.629613,133.453516
1.629581,109.391016
1.629550,129.016016
1.629518,134.828516
1.629487,135.516016
1.629455,131.641016
1.629424,132.266016
1.629392,136.828516
1.629361,155.516016
1.629329,135.578516
1.629298,133.516016
1.629266,116.016016
1.629235,138.641016
1.629203,157.391016
1.629171,156.453516
1.629140,152.266016
1.629108,144.016016
1.629077,158.078516
1.629045,168.078516
1.629014,151.266016
1.628982,170.328516
1.628951,175.016016
1.628919,170.266016
1.628888,168.203516
1.628856,141.453516
1.628825,165.516016
1.628793,169.391016
1.628762,171.953516
1.628730,173.391016
1.628699,150.828516
1.628667,167.891016
1.628636,152.641016
1.628605,161.391016
1.628573,151.766016
1.628542,159.141016
1.628510,162.391016
1.628479,142.891016
1.628447,144.578516
1.628416,130.859766
1.628384,145.641016
1.628353,134.078516
1.628321,152.078516
1.628290,131.016016
1.628258,127.828516
1.628227,126.891016
1.628195,127.141016
1.628164,120.078516
1.628132,125.016016
1.628101,127.891016
1.628070,123.391016
1.628038,104.453516
1.628007,104.234766
1.627975,88.453516
1.627944,85.453516
1.627912,80.203516
1.627881,78.641016
1.627849,81.516016
1.627818,141.953516
1.627787,596.266016
1.627755,2157.828516
1.627724,2151.453516
1.627692,1014.328516
1.627661,203.391016
1.627629,63.641016
1.627598,48.641016
1.627566,44.828516
1.627535,41.766016
1.627504,41.078516
1.627472,44.078516
1.627441,40.078516
1.627409,36.453516
1.627378,34.078516
1.627347,32.391016
1.627315,25.766016
1.627284,37.828516
1.627252,42.703516
1.627221,32.203516
1.627189,26.328516
1.627158,27.328516
1.627127,28.828516
1.627095,21.328516
1.627064,23.828516
1.627032,21.828516
1.627001,24.453516
1.626970,21.328516
1.626938,20.828516
1.626907,16.266016
1.626875,16.891016
1.626844,22.016016
1.626813,10.266016
1.626781,6.891016
1.626750,11.766016
1.626719,17.453516
1.626687,15.141016
1.626656,17.328516
1.626624,15.266016
1.626593,18.391016
1.626562,17.516016
1.626530,34.766016
1.626499,33.766016
1.626468,27.391016
1.626436,8.016016
1.626405,11.391016
1.626373,14.203516
1.626342,18.078516
1.626311,15.203516
1.626279,9.828516
1.626248,17.953516
1.626217,16.016016
1.626185,18.578516
1.626154,10.703516
1.626123,19.266016
1.626091,20.391016
1.626060,15.766016
1.626029,13.203516
1.625997,18.016016
1.625966,15.016016
1.625935,18.578516
1.625903,12.766016
1.625872,15.203516
1.625841,17.516016
1.625809,18.328516
1.625778,13.578516
1.625747,13.453516
1.625715,20.516016
1.625684,18.641016
1.625653,13.203516
1.625621,17.141016
1.625590,17.953516
1.625559,13.391016
1.625527,21.828516
1.625496,15.578516
1.625465,24.641016
1.625433,19.078516
1.625402,25.453516
1.625371,21.453516
1.625339,31.578516
1.625308,63.578516
1.625277,269.078516
1.625245,302.891016
1.625214,122.016016
1.625183,40.578516
1.625152,22.016016
1.625120,25.328516
1.625089,22.016016
1.625058,21.828516
1.625026,18.641016
1.624995,20.391016
1.624964,21.141016
1.624933,20.953516
1.624901,21.953516
1.624870,24.391016
1.624839,26.078516
1.624807,37.328516
1.624776,24.328516
1.624745,21.016016
1.624714,29.703516
1.624682,31.578516
1.624651,22.703516
1.624620,24.266016
1.624588,33.016016
1.624557,29.391016
1.624526,18.641016
1.624495,23.516016
1.624463,24.266016
1.624432,23.328516
1.624401,22.203516
1.624370,25.703516
1.624338,29.141016
1.624307,36.203516
1.624276,19.891016
